No	Mag	X	Y
--	---	-	-
0001	7.40	-6430.96	-2871.82
0002	7.78	-6418.35	-2858.84
0003	8.32	-4868.10	1714.42
0003	10.75	-4868.10	1714.42
0004	8.88	-4579.97	3035.23
0005	9.36	-4214.38	2125.93
0006	5.97	-2917.09	578.39
0007	8.98	-2750.82	452.59
0008	6.38	-2419.35	-1982.48
0009	8.67	-2233.24	1664.78
0010	7.85	-1787.40	-45.07
0011	6.02	-1666.69	-241.16
0013	6.62	-1386.26	931.59
0014	5.72	-1398.64	-3764.45
0015	8.09	-1039.56	2800.17
0016	7.05	-1045.63	2388.93
0017	8.46	-1081.66	-442.74
0018	8.06	-1087.39	-1233.64
0019	7.12	-1083.22	-1862.17
0020	6.33	-961.51	-164.29
0021	9.14	-875.91	2188.10
0022	8.31	-794.50	392.27
0023	7.53	-759.35	863.67
0024	5.65	-722.82	2066.80
0025	9.60	-738.67	82.38
0027	8.46	-666.07	599.34
0028	3.64	-611.58	-84.48
0029	6.88	-600.24	237.78
0030	5.60	-598.87	-658.07
0031	7.47	-570.88	1215.53
0032	6.13	-553.77	1038.38
0033	5.25	-542.11	-276.51
0034	6.17	-519.13	-719.90
0035	6.80	-458.70	1869.43
0036	6.80	-459.10	920.30
0037	6.61	-458.10	-523.82
0038	5.72	-416.58	-643.56
0039	7.85	-356.44	333.95
0040	6.99	-356.60	-290.80
0041	3.76	-339.36	604.65
0042	8.86	-303.37	1991.82
0043	9.40	-301.77	1368.38
0044	7.19	-291.73	3098.30
0045	5.64	-297.52	328.87
0046	9.12	-287.55	-429.74
0047	4.80	-239.23	569.38
0048	7.13	-229.91	2121.74
0049	8.24	-228.97	185.78
0050	7.62	-229.35	-398.12
0051	6.97	-215.27	437.81
0052	7.80	-206.85	368.15
0053	5.98	-167.69	1145.61
0054	4.22	-135.59	2325.36
0055	5.26	-131.46	2290.72
0056	4.30	-120.03	743.83
0057	6.46	-106.79	28.28
0058	7.91	-89.61	1081.66
0059	7.49	-65.08	-121.77
0060	4.28	-57.16	2514.99
0061	7.35	-63.87	-3902.38
0062	7.38	-56.15	2025.50
0063	8.07	-40.23	357.05
0064	8.13	-17.25	318.63
0065	7.42	65.05	-97.77
0066	7.50	86.91	-1486.93
0067	5.72	86.96	2080.69
0068	5.89	135.00	-402.54
0069	8.64	143.02	1399.72
0070	3.53	144.85	1197.32
0071	3.85	148.62	37.35
0072	3.40	155.91	4.37
0073	7.85	164.86	513.91
0074	5.03	178.57	-1012.84
0075	7.38	184.52	108.24
0076	9.19	199.43	3940.17
0077	7.05	210.47	607.71
0078	6.91	224.43	722.48
0079	8.95	225.82	733.30
0080	5.59	284.73	-78.66
0081	7.11	285.91	1437.03
0082	4.78	319.99	121.92
0083	5.48	329.45	-58.67
0084	5.40	332.64	-767.71
0085	6.51	338.81	105.80
0086	7.04	371.53	-1842.05
0087	8.58	366.06	1543.65
0088	7.78	408.17	-702.48
0089	6.02	433.17	0.08
0090	6.38	493.68	-3801.87
0091	8.93	516.55	56.44
0092	8.66	531.48	-10.67
0093	9.41	582.22	329.49
0094	6.62	611.36	-935.13
0095	4.65	609.53	-360.67
0096	8.51	620.17	-245.90
0097	7.93	671.25	-122.39
0098	9.23	633.24	4469.79
0099	9.38	800.84	-55.67
0100	6.03	789.98	2718.36
0101	6.65	850.72	11.55
0102	7.54	929.21	-247.59
0103	5.78	977.18	73.21
0104	4.27	1001.54	-1197.81
0105	7.53	990.11	2653.03
0107	5.39	1116.07	-2886.18
0108	4.68	1076.11	33.15
0109	9.40	1092.44	2712.67
0110	8.85	1149.36	2900.07
0111	5.40	1567.13	-1682.38
0112	5.37	1705.13	-1476.73
0113	7.25	1796.64	-2455.20
0114	8.54	1777.32	897.41
0115	9.07	1838.34	1932.17
0116	9.00	1895.85	1039.80
0117	9.56	1839.40	3292.30
0118	7.74	1968.60	45.73
0119	7.12	2028.14	523.34
0120	7.53	2068.57	-242.89
0121	7.29	2075.98	165.74
0122	6.77	2173.80	-1697.19
0123	5.10	2093.42	1119.38
0124	6.26	2198.12	-756.38
0125	9.31	2233.38	2653.11
0126	6.37	2394.84	1367.02
0127	8.89	2724.36	-612.18
0128	6.75	2863.10	89.74
0129	4.64	3059.44	2173.27
0130	5.43	3837.31	-2100.91
0131	6.00	3498.57	4623.05
0132	8.63	3498.57	4623.05
0133	9.67	-6988.02	-1949.78
0134	10.04	-4313.45	-4079.18
0135	8.98	-3975.82	-4536.48
0136	7.42	-3471.28	-2607.24
0137	5.88	-2240.74	869.82
0138	8.27	-1250.05	5146.51
0139	9.09	-386.71	5358.90
0140	8.94	-176.79	-4070.38
0141	4.49	-43.37	-87.59
0142	8.33	1708.91	-112.56
0143	7.90	2136.57	-113.70
0144	9.09	2245.38	-1791.78
0145	9.32	2192.59	1545.37
0146	7.24	2349.04	471.50
0147	9.17	2565.98	-2001.30
0148	8.93	2505.76	4294.18
0149	8.48	2884.49	-5460.03
0150	8.79	3225.10	547.41
0151	9.93	3566.49	-3362.48
0152	9.23	3527.02	4478.13
0153	8.91	-7501.40	5781.46
0154	5.80	-7851.33	2243.48
0155	9.48	5489.41	3677.86
0156	10.38	5633.83	5371.86
0157	5.79	-11891.26	5094.10
0158	8.03	-6443.12	-1353.38
0159	8.74	-4289.34	1113.91
0160	5.46	-2053.54	-2770.70
0161	9.05	-1737.60	3636.23
0162	7.84	-949.94	1793.50
0163	7.98	1401.99	-5491.44
0164	6.01	1655.62	1066.08
0165	8.52	1904.90	2775.33
0166	9.59	2366.86	683.17
0167	8.93	4580.02	5019.05
0168	5.54	6212.16	734.75
0169	4.12	9027.24	-1882.79
0170	10.23	-3009.77	2996.26
0171	10.10	-465.83	-366.46
0172	10.20	-339.08	-581.45
0173	10.50	-297.57	-36.00
0174	9.99	-224.28	770.55
0175	10.29	-160.80	404.04
0176	9.01	-94.27	775.63
0177	10.43	52.38	-576.13
0178	9.03	109.34	-717.82
0179	9.49	82.88	-519.67
0180	9.08	266.02	293.93
0181	10.33	224.80	137.16
0182	8.96	322.16	-43.70
0183	9.68	664.40	-5.99
0184	10.83	788.82	252.86
0185	9.47	1171.06	250.40
0186	9.99	1228.53	1612.63
0187	9.00	3200.93	-692.70
0188	11.09	60.78	-178.18
0189	11.09	113.71	219.70
0190	10.70	171.44	154.41
0191	11.05	435.37	-127.14
1001	13.96	-1484.30	339.98
1004	15.32	-1471.37	192.88
1008	11.61	-1490.78	-1208.22
1009	16.80	-1468.16	-152.54
1013	14.14	-1434.83	794.68
1016	15.02	-1425.95	442.25
1018	14.71	-1418.48	455.34
1020	15.69	-1424.37	-144.35
1021	14.63	-1428.93	-680.49
1022	14.99	-1417.77	-405.59
1024	9.79	-1428.62	-1121.08
1026	15.38	-1423.01	-1290.17
1028	10.44	-1397.19	-1094.42
1029	16.59	-1392.38	-838.90
1032	14.56	-1341.71	630.70
1036	15.80	-1301.26	561.28
1037	14.92	-1330.06	-1126.77
1038	16.08	-1295.90	133.53
1039	16.08	-1302.18	-715.06
1041	15.98	-1303.40	-1118.11
1043	14.77	-1268.20	641.88
1044	12.38	-1269.63	-103.82
1045	13.99	-1255.18	145.43
1046	13.95	-1254.24	-909.07
1049	11.39	-1218.75	-99.26
1050	15.95	-1196.01	-216.85
1051	9.18	-1181.31	330.53
1052	11.76	-1191.70	-399.68
1053	11.53	-1193.21	-1219.70
1054	15.14	-1127.08	-175.22
1057	14.17	-1098.58	461.42
1058	16.33	-1117.80	-1199.52
1059	6.76	-1102.58	-1264.83
1063	12.56	-1075.31	-908.42
1064	15.34	-1066.36	-593.26
1066	16.87	-1054.72	-903.25
1067	16.74	-973.80	326.69
1068	10.73	-1048.90	-1009.90
1069	15.03	-1033.73	62.58
1070	16.48	-1019.86	-188.16
1071	15.62	-1013.88	-280.17
1072	11.56	-1017.26	-525.34
1074	14.07	-992.02	-168.10
1075	11.15	-978.89	-54.13
1076	15.25	-973.80	326.69
1077	16.09	-981.35	-1228.17
1080	12.04	-938.25	734.94
1082	14.77	-957.32	-1304.39
1083	15.03	-935.32	406.07
1084	15.57	-905.49	490.40
1085	14.10	-909.57	47.10
1087	17.49	-908.92	-604.16
1088	15.34	-908.97	-607.77
1090	14.55	-901.46	-1070.51
1092	12.72	-897.72	-883.34
1093	13.95	-885.33	-340.62
1094	15.75	-875.60	347.61
1095	17.20	-871.50	329.53
1096	14.40	-860.30	179.83
1097	15.49	-875.74	-1129.79
1099	17.01	-867.83	-1080.47
1101	10.48	-849.68	-273.74
1102	15.01	-854.25	-1048.69
1103	17.38	-828.60	-335.23
1105	14.46	-805.99	653.19
1106	14.46	-815.64	-345.58
1107	13.82	-814.61	-1314.14
1111	16.30	-789.56	317.73
1112	15.32	-805.01	-1242.49
1115	12.62	-789.90	-792.35
1118	15.11	-780.97	-228.22
1119	13.97	-771.60	246.66
1122	14.95	-776.31	-473.33
1124	14.84	-768.48	-143.08
1125	11.25	-762.44	-119.72
1127	16.10	-751.05	560.59
1129	14.68	-760.44	-911.71
1131	15.90	-747.31	85.47
1134	9.36	-744.05	-306.06
1135	10.01	-732.39	562.18
1137	14.96	-736.31	-402.83
1139	14.97	-711.97	596.81
1141	15.49	-712.05	-1208.29
1146	11.99	-703.24	-899.55
1150	14.85	-681.43	336.40
1151	13.21	-683.76	87.25
1152	12.67	-689.01	-474.13
1153	14.65	-686.05	-781.82
1159	17.64	-658.38	339.78
1162	12.81	-653.38	-556.72
1164	16.27	-658.77	-1330.40
1165	13.97	-646.36	71.89
1167	11.41	-637.57	-78.86
1168	16.27	-636.59	-467.35
1170	14.55	-630.05	-552.70
1171	9.81	-632.36	-1167.30
1173	12.47	-620.11	-409.83
1185	15.83	-579.76	277.83
1189	16.42	-579.43	-969.03
1190	10.84	-570.87	-58.40
1191	12.26	-562.90	595.37
1192	15.44	-566.00	-554.97
1194	16.05	-547.57	155.71
1196	16.46	-543.67	-487.85
1200	13.86	-525.79	-225.60
1203	16.70	-513.70	-361.35
1205	16.01	-496.21	499.34
1206	14.12	-504.58	-1372.32
1208	16.31	-481.07	-1377.87
1209	14.64	-464.84	-209.79
1211	14.08	-463.86	-514.78
1213	15.43	-455.41	371.15
1216	15.64	-457.46	-420.54
1217	12.40	-456.49	-265.06
1218	17.06	-457.08	-360.50
1223	13.33	-425.52	74.45
1225	15.40	-420.55	434.57
1226	12.62	-420.84	-115.82
1227	16.25	-426.02	-1018.02
1232	13.89	-401.58	-564.35
1233	16.72	-396.91	28.68
1235	17.58	-388.66	758.72
1236	18.07	-387.22	-50.59
1237	12.25	-383.52	377.92
1240	14.22	-376.59	-231.88
1241	15.55	-373.97	-2.04
1242	13.08	-363.82	866.76
1244	16.17	-370.50	-1042.33
1247	14.89	-362.38	-288.37
1253	16.05	-351.60	-1073.69
1254	16.53	-346.63	-330.46
1257	13.85	-340.81	-325.68
1258	15.11	-337.24	-1137.54
1260	16.71	-331.67	-229.09
1261	13.25	-325.73	769.18
1262	15.85	-314.98	-54.53
1263	17.61	-311.52	415.97
1265	16.12	-310.10	413.56
1266	15.53	-312.20	-1111.14
1274	12.65	-302.37	-859.17
1275	14.95	-299.53	-517.35
1280	12.10	-283.66	197.38
1282	14.81	-271.41	5.90
1286	15.38	-262.28	533.44
1288	13.33	-261.08	-339.19
1290	12.46	-261.36	-828.05
1292	14.28	-253.49	176.26
1293	17.27	-283.66	197.38
1294	10.90	-254.91	-652.63
1296	17.26	-261.08	-339.19
1297	12.54	-261.36	-828.05
1300	16.85	-245.67	-1382.96
1304	7.70	-238.68	-1041.57
1305	15.10	-233.33	-279.26
1306	14.58	-232.89	-139.44
1307	15.97	-232.82	-1039.78
1309	14.40	-229.19	-346.50
1311	11.24	-228.47	-116.05
1313	10.41	-222.43	439.63
1314	16.21	-223.36	-1303.47
1316	15.73	-216.11	-338.13
1317	15.04	-212.03	562.68
1320	10.03	-208.35	-672.58
1321	14.93	-206.44	7.49
1322	16.32	-204.04	-694.82
1323	16.48	-204.01	-159.33
1326	16.62	-201.13	-696.62
1327	16.05	-195.07	-1163.23
1329	15.36	-191.97	17.05
1331	13.21	-189.32	482.15
1333	11.94	-186.93	-843.87
1334	11.64	-177.57	3.82
1335	16.18	-175.00	-738.73
1340	12.18	-164.63	614.19
1345	16.40	-155.73	-1289.75
1347	13.10	-155.12	-996.04
1349	13.03	-137.86	-1159.72
1351	13.27	-143.37	506.06
1352	16.49	-138.29	157.94
1353	11.11	-151.65	659.80
1354	11.35	-127.19	739.04
1358	12.72	-113.81	-785.10
1359	15.23	-110.87	-768.28
1362	15.87	-95.92	605.64
1366	12.22	-89.66	-122.95
1367	10.30	-88.80	-609.73
1368	16.27	-86.98	-309.57
1371	15.23	-83.25	-850.04
1373	15.37	-79.95	-504.06
1376	9.61	-78.00	-1416.39
1379	12.32	-74.22	829.69
1380	13.66	-74.55	510.75
1381	16.53	-72.89	731.75
1382	15.57	-68.87	453.11
1383	12.17	-66.68	-295.19
1386	11.21	-55.10	-325.21
1390	15.70	-40.71	-510.69
1391	15.30	-33.85	-1416.41
1395	11.38	-29.05	-447.06
1397	15.43	-18.61	621.19
1398	15.70	-17.61	-1185.10
1404	10.51	-7.33	-1144.17
1407	10.47	8.78	-981.14
1408	17.73	10.24	-979.33
1409	12.07	11.52	195.01
1413	11.05	15.92	-175.80
1419	13.37	27.47	-93.60
1420	13.05	34.41	496.90
1422	17.75	37.94	-784.57
1424	15.33	38.70	520.92
1428	18.65	44.51	405.67
1431	16.64	51.07	-783.96
1432	15.91	50.96	-627.78
1434	15.34	50.05	696.28
1445	15.71	60.67	-41.38
1449	10.62	66.36	60.63
1451	13.99	69.17	140.44
1461	15.44	93.19	-625.34
1463	15.58	218.83	-1260.71
1466	14.84	98.67	689.13
1474	17.73	111.96	418.95
1478	15.38	117.92	285.72
1479	14.99	119.80	15.10
1480	11.53	125.49	-783.88
1482	14.99	133.70	-484.78
1483	15.48	133.05	-124.68
1486	12.10	135.91	661.57
1490	14.01	153.63	400.42
1492	16.63	155.65	797.39
1496	15.44	170.44	-1297.56
1502	11.97	174.59	44.01
1503	13.83	174.12	240.23
1506	15.40	178.47	810.67
1512	14.29	184.35	175.44
1516	10.05	187.41	-457.06
1522	17.37	193.62	-62.15
1526	15.51	200.78	485.79
1528	14.59	206.68	-595.11
1529	12.36	205.60	-210.33
1531	12.75	206.89	-155.72
1533	15.95	206.46	506.82
1537	14.70	218.83	-1260.71
1538	13.70	215.38	-586.08
1543	13.56	227.16	-1104.17
1545	10.02	226.28	587.35
1550	7.57	237.60	-706.74
1559	12.80	262.83	380.95
1564	15.15	281.90	-1239.47
1568	16.29	284.95	-509.60
1574	15.58	308.05	-1170.14
1575	14.46	302.18	591.86
1578	9.95	301.74	695.77
1579	16.44	310.68	-1099.11
1581	14.84	314.00	-501.09
1582	16.05	314.23	-554.53
1583	17.48	315.52	486.23
1588	11.21	331.64	-1195.95
1595	16.98	336.93	-429.55
1599	16.39	343.07	119.62
1606	13.91	365.65	-1247.62
1607	13.99	367.28	-1280.14
1610	15.13	372.96	195.39
1616	15.80	395.40	-1317.38
1617	16.85	388.38	275.30
1619	15.94	398.14	-465.29
1620	14.91	392.23	627.17
1622	11.89	393.42	671.63
1626	13.85	407.38	222.59
1627	9.54	404.88	668.69
1628	16.27	413.79	-664.00
1630	13.34	424.31	-1231.11
1634	15.99	415.23	861.67
1637	12.27	424.75	-292.25
1638	12.13	424.97	-80.38
1641	14.78	436.63	-1328.65
1647	11.32	442.94	-421.82
1657	15.25	450.78	652.77
1659	14.12	469.76	-1218.24
1663	16.11	466.71	-277.61
1670	10.34	468.86	512.95
1673	13.96	472.04	684.77
1674	15.45	478.83	740.10
1676	15.92	489.02	-580.70
1677	11.01	493.18	-986.39
1681	12.93	503.87	635.14
1682	11.07	518.86	-1309.56
1683	15.05	526.60	-1364.37
1685	14.47	517.50	330.17
1686	12.25	517.08	590.19
1687	15.37	530.34	-1269.73
1688	13.58	527.36	-647.74
1690	17.90	527.57	329.05
1693	13.47	538.78	-415.23
1701	14.31	559.36	122.19
1707	15.76	569.32	872.49
1709	13.18	584.15	-1009.91
1710	10.05	583.69	-216.17
1713	8.35	587.42	41.38
1714	15.55	600.40	-1390.47
1718	12.59	604.97	-690.48
1721	16.11	592.80	793.95
1722	14.20	611.51	-1130.71
1726	15.14	609.23	368.15
1728	14.51	622.00	-290.32
1731	12.58	634.71	-586.90
1734	16.36	631.42	791.31
1735	15.85	638.27	171.48
1739	13.74	646.42	872.03
1741	9.80	671.58	-1120.06
1742	12.15	666.18	-522.37
1743	14.73	671.52	-790.36
1750	12.38	679.47	-228.59
1751	7.95	669.56	686.51
1760	15.09	727.26	-961.93
1763	16.13	748.36	-159.49
1764	14.57	758.56	-587.06
1765	10.29	746.92	404.35
1766	16.47	767.10	-1131.96
1768	15.79	765.86	-870.15
1771	8.90	775.24	-1349.44
1775	16.77	782.96	-414.99
1776	14.91	789.80	-919.87
1777	16.30	784.67	102.69
2001	12.08	-5278.54	4547.14
2002	9.73	-5202.51	-841.45
2004	9.72	-4127.29	5366.88
2005	12.30	-4416.50	2706.98
2007	11.15	-2846.40	3696.30
2008	10.12	-2812.88	-1187.27
2009	11.13	-2318.07	2002.46
2010	9.31	-1823.79	765.36
2013	10.84	-1969.89	3356.58
2014	11.28	-1620.10	-1316.66
2015	10.48	-1725.01	-177.84
2016	9.94	-1655.58	248.12
2017	10.79	-1454.66	2481.45
2018	9.96	-1534.31	2882.21
2020	9.38	-1256.46	2826.83
2021	11.77	-1513.98	4438.03
2022	11.54	-1353.15	5921.16
2025	11.91	-913.67	1092.07
2026	10.83	-810.50	1143.61
2027	10.66	-987.62	2631.00
2028	9.79	-826.34	2467.04
2029	10.04	-861.10	2824.13
2031	11.67	-579.13	1773.80
2032	11.73	-529.37	1830.75
2038	11.02	-239.25	2261.35
2040	12.82	-143.58	1120.87
2043	14.01	-587.77	1408.56
2044	14.03	-628.16	2129.27
2045	14.83	-382.91	2350.33
2046	14.01	-636.46	2453.89
2047	13.69	-592.29	2224.74
2057	10.16	92.62	951.14
2058	11.24	-14.05	1940.09
2059	9.45	2.96	-1800.95
2064	10.51	490.16	1176.27
2065	10.74	578.57	1141.54
2066	10.69	561.10	1915.19
2067	11.49	344.13	3687.29
2071	13.20	179.39	1013.88
2072	14.22	91.08	1044.96
2073	14.21	222.97	2099.28
2074	12.62	529.36	2952.06
2077	11.12	667.79	1642.43
2078	12.84	593.68	3377.39
2080	10.04	1148.90	-1116.54
2081	11.23	1289.92	-935.66
2083	10.16	990.00	617.24
2084	11.91	1041.03	2129.82
2085	11.40	1080.83	2651.30
2086	13.51	781.08	1099.86
2087	13.26	832.06	1002.39
2089	14.28	859.97	1764.18
2090	9.86	1412.69	456.42
2091	11.53	1810.23	-321.08
2093	10.69	1710.60	2640.00
2094	10.30	1486.80	-1676.27
2095	11.17	1824.17	463.24
2096	10.61	2004.17	236.07
2097	11.30	2164.15	1206.62
2099	12.29	2046.12	1516.90
2100	12.21	2254.59	1349.35
2101	10.93	2653.03	-647.80
2102	11.33	2519.16	437.04
2103	11.57	2477.23	4048.33
2104	11.39	3060.74	-624.29
2105	9.22	2776.85	5955.60
2106	10.22	2941.93	2479.81
2108	11.87	3087.18	1596.93
2109	10.84	3668.30	-799.87
2110	9.70	3813.17	2296.96
2111	11.61	4099.41	-85.86
2112	12.68	4216.20	3741.57
2113	11.15	4730.89	423.27
2114	11.33	5169.27	329.56
2115	10.48	4891.45	3267.84
2116	10.81	5228.60	1163.88
2117	12.12	897.87	-4304.61
2118	11.51	1035.71	-4074.59
2119	10.92	1813.33	-4455.93
3201	12.13	-7673.40	-3491.02
3202	11.11	-5865.46	4182.67
3203	11.10	-5665.42	6415.35
3205	9.86	-4898.52	5411.77
3210	11.86	-4750.75	-5539.54
3296	10.31	726.19	-4446.24
3307	9.68	1109.73	-1647.04
3333	11.58	1862.99	-615.29
3334	11.62	1761.21	5076.97
3336	10.78	2146.98	-926.93
3337	9.54	1985.51	4737.47
3339	11.08	2206.58	87.53
3341	9.89	2413.48	1068.16
3343	12.11	2604.67	-789.26
3345	12.34	2866.97	-1309.77
3346	10.66	2853.87	437.39
3347	10.18	2767.23	5293.56
3349	12.37	3029.30	2072.19
3352	11.84	3513.88	644.65
3354	12.72	4078.77	-5790.90
3356	12.69	4421.12	-4546.15
3357	10.97	4247.50	1367.85
3359	12.67	5339.55	1168.69
3360	12.22	5438.24	1339.32
3361	10.25	4707.37	1131.28
4006	9.48	-5891.55	3037.32
4011	14.14	-1725.87	2761.21
4013	15.50	-545.03	1992.54
4016	13.44	-422.53	2736.32
4019	13.02	-75.74	2084.31
4033	14.00	1021.76	1210.71
4037	13.28	1318.06	1678.80
4045	13.93	-25.85	382.85
4046	14.93	1187.21	-663.80
4047	11.76	746.35	-2601.26
4048	11.33	1873.91	-3399.67
4052	14.21	-4773.15	241.52
4053	12.74	-4289.12	841.36
4054	13.29	-4287.70	840.04
4055	13.87	-3825.65	2842.50
4056	13.34	-3882.33	1149.44
4057	14.03	-2332.33	3449.72
4058	13.42	-2213.53	6156.98
4059	13.57	-2355.56	1686.19
4060	12.10	-1305.99	6355.09
4061	13.96	-142.01	2605.33
4062	15.09	127.53	-2867.61
4063	12.93	173.88	3780.45
4064	12.88	1297.56	-1374.06
4065	13.37	1351.30	-1405.35
4067	12.28	1676.85	2995.79
4068	13.09	1796.27	1175.17
4069	12.42	1875.19	223.49
4070	14.00	1917.63	705.32
4071	14.73	2112.14	-3524.25
4072	11.38	2150.47	553.10
4092	17.67	-2568.92	1047.13
4093	15.72	-2581.62	156.13
4094	18.51	-2491.04	1331.53
4095	15.38	-2060.21	1672.75
4096	18.91	-1766.09	1470.05
4097	19.19	-1707.85	1639.69
4098	15.86	-1672.50	1630.75
4099	15.25	-1499.02	467.31
4101	18.70	-1119.67	1506.40
4102	18.25	-962.18	1088.60
4103	18.42	-1003.56	362.57
4104	17.26	-855.72	689.90
4105	12.02	-912.25	1092.05
4106	19.06	-2064.71	1566.09
4107	17.07	-1929.17	1773.70
4108	18.00	-1803.50	1626.91
4109	16.22	-1306.34	1466.85
4110	11.50	-1497.32	1650.63
4111	17.55	-1361.55	1403.47
4112	15.60	-1349.90	1114.06
4113	18.68	-1339.44	48.34
4114	14.54	-1059.89	1037.81
4115	16.45	-493.24	933.79
4116	17.93	-476.42	454.15
4117	18.83	-568.16	1019.85
4118	18.54	169.50	1583.76
4119	16.61	157.50	603.36
4120	13.56	781.08	1099.86
4121	13.27	832.06	1001.79
4122	18.10	1100.33	819.34
4123	18.25	567.22	593.00
4124	15.29	-2528.88	-439.77
4125	14.71	-2287.42	-683.30
4126	11.30	-2254.75	-773.65
4127	15.10	-2295.84	-1436.48
4128	12.02	-2112.26	-1109.21
4129	18.34	-1809.82	-2003.39
4130	17.35	-2426.54	-1647.95
4131	18.02	-1983.35	-2173.52
4132	13.70	-1754.17	-1543.10
4133	18.07	-1408.88	-398.53
4134	10.88	-2266.10	-1340.70
5001	10.54	-2661.32	20.39
5002	15.78	-2577.85	1442.82
5004	15.81	-2589.40	-734.58
5005	16.59	-2576.40	-829.49
5006	9.65	-2609.37	-1992.39
5007	17.95	-2533.05	-819.85
5008	18.60	-2547.37	-1500.31
5009	16.77	-2524.74	-1142.58
5012	8.97	-2487.66	-969.58
5013	13.02	-2515.37	-2245.01
5014	13.62	-2355.56	1686.19
5015	18.13	-2383.70	612.40
5016	17.62	-2360.09	1023.08
5017	19.00	-2402.17	-714.61
5018	18.96	-2400.12	-742.50
5019	19.30	-2421.47	-1399.52
5020	17.00	-2407.93	-1350.07
5022	16.58	-2406.40	-1348.89
5023	16.17	-2277.29	1312.62
5024	18.63	-2375.63	-1883.43
5025	19.11	-2253.07	1851.69
5027	17.97	-2299.86	-1228.96
5028	15.25	-2261.88	-524.42
5029	14.58	-2275.34	-1302.29
5032	17.54	-2173.46	121.55
5033	15.79	-2129.55	1355.61
5034	19.30	-2229.53	-2115.55
5035	19.49	-2227.97	-2113.75
5036	17.62	-2226.29	-2107.68
5037	18.57	-2112.29	1308.94
5038	18.95	-2136.52	336.51
5039	19.60	-2200.58	-1897.35
5040	16.72	-2182.78	-1442.64
5043	19.62	-2066.53	344.66
5045	17.50	-1972.59	6.05
5046	16.62	-1940.25	1151.81
5047	18.42	-1969.90	-2.47
5049	15.90	-1909.34	1664.37
5050	17.37	-1979.37	-1739.22
5051	17.75	-1881.16	776.06
5052	15.74	-1920.57	-796.24
5053	17.35	-1866.80	-16.60
5055	16.38	-1895.79	-1443.64
5059	17.47	-1782.21	874.01
5060	16.16	-1758.01	1158.34
5064	16.24	-1688.60	1611.84
5067	18.14	-1722.44	-1842.54
5069	17.58	-1691.52	-1464.85
5071	16.87	-1656.84	-451.56
5073	18.52	-1575.72	1378.05
5074	8.72	-1624.30	-834.27
5075	19.24	-1622.89	-837.32
5077	17.18	-1621.65	-1456.33
5078	18.50	-1617.38	-1327.59
5079	16.78	-1594.62	-2209.09
5082	15.38	-1476.83	1266.12
5083	17.37	-1462.65	194.50
5084	15.13	-1479.17	-1218.07
5085	17.93	-1457.53	-1318.65
5086	17.30	-1445.34	-845.87
5087	18.59	-1450.86	-1354.99
5088	12.31	-1386.27	1815.55
5089	16.97	-1420.80	-638.48
5091	17.72	-1386.12	938.82
5093	17.44	-1364.99	-78.09
5094	16.73	-1346.47	915.05
5096	19.21	-1348.61	-1094.54
5098	16.69	-1259.21	1802.17
5101	17.25	-1235.89	-1663.17
5105	18.20	-1194.73	-1131.03
5106	17.24	-1196.81	-1907.06
5107	16.37	-1169.07	-534.12
5108	17.57	-1164.10	-1906.80
5109	17.51	-1126.22	-24.99
5111	16.50	-1134.22	-1117.93
5112	17.81	-1130.72	-1664.35
5114	15.45	-1062.96	536.00
5115	16.61	-1036.74	1158.53
5117	15.49	-1046.82	-1595.09
5119	17.36	-964.12	1788.90
5124	18.59	-917.12	820.05
5126	17.35	-918.91	338.56
5127	18.30	-900.85	1431.90
5128	17.62	-936.97	-1561.10
5130	18.58	-888.58	227.03
5131	15.12	-903.58	-1978.89
5134	18.30	-853.08	1154.43
5138	18.60	-804.56	392.99
5144	19.13	-731.07	1255.85
5145	16.51	-720.61	1306.95
5147	17.06	-585.03	-21.67
5148	17.44	-588.51	-1563.10
5149	15.84	-565.54	1351.66
5151	15.24	-550.50	1093.71
5152	18.20	-514.91	1094.61
5153	19.26	-523.33	-1317.37
5154	18.95	-527.53	-2127.34
5155	18.95	-494.62	940.41
5157	19.33	-498.92	-968.92
5159	18.70	-465.16	865.62
5160	18.87	-478.30	-1176.05
5161	15.58	-476.41	-1803.54
5162	16.48	-449.11	1602.20
5165	19.48	-440.41	1638.36
5166	16.96	-440.11	-2175.01
5167	18.30	-416.56	1369.69
5168	18.00	-412.10	-885.17
5169	18.43	-412.87	-1286.58
5170	19.92	-398.98	-2272.90
5172	18.70	-379.19	-453.97
5177	14.94	-358.22	1698.78
5178	18.59	-365.88	-2201.96
5180	19.54	-335.76	-1135.13
5185	19.07	-316.32	-1392.40
5186	15.37	-309.34	-2198.48
5190	18.70	-267.72	-1379.89
5191	16.95	-253.48	1000.30
5193	16.92	-255.38	-788.40
5196	18.70	-251.11	-1252.81
5197	15.07	-246.44	-1616.40
5199	16.68	-218.70	1195.74
5201	17.53	-214.50	209.13
5202	16.64	-204.70	1125.86
5204	16.77	-210.03	-1266.76
5205	19.11	-199.13	1083.12
5207	18.29	-202.84	-1864.87
5208	19.16	-196.63	-1196.93
5213	15.09	-159.79	1502.27
5215	15.00	-158.26	1554.15
5218	16.93	-138.36	878.48
5220	14.85	-103.75	1135.23
5223	18.54	-92.92	-412.20
5226	19.69	-80.01	-559.30
5227	18.37	-72.14	-1441.11
5229	18.72	-59.79	1020.86
5230	18.00	-48.80	427.88
5231	15.95	-45.71	770.17
5232	18.46	-41.53	-2003.66
5233	18.61	-33.62	-904.77
5234	16.28	-31.56	470.49
5239	13.10	18.41	1379.05
5240	17.68	20.16	204.61
5241	15.79	23.57	-1493.00
5244	15.68	58.14	1292.32
5245	19.80	59.29	-121.18
5246	15.50	70.61	139.84
5248	18.74	83.48	1460.49
5253	17.59	96.71	-1096.58
5254	18.06	99.60	-2169.71
5257	19.11	112.95	1611.98
5259	18.34	136.05	-1779.11
5260	16.15	135.61	-733.40
5261	18.29	135.02	-413.94
5264	17.72	143.76	1738.89
5266	17.77	174.42	-1744.60
5271	17.70	219.02	-1325.77
5272	18.87	215.88	711.64
5275	12.26	240.60	1441.04
5276	19.99	253.78	-2041.55
5278	15.90	261.65	1100.81
5281	18.15	278.36	76.74
5282	19.48	298.61	63.02
5284	19.08	305.75	763.08
5286	16.69	317.89	-58.72
5287	19.10	322.60	-807.41
5290	19.67	326.54	-52.68
5291	17.69	329.50	-69.47
5292	19.63	339.58	-1652.37
5295	19.20	383.38	-1842.01
5297	17.14	388.99	-1217.41
5299	14.91	399.75	-1858.89
5300	16.38	390.64	389.96
5301	16.62	405.25	-1779.64
5305	18.76	462.19	-2138.53
5307	19.55	479.64	-1844.66
5309	16.69	467.84	1763.06
5310	18.09	495.93	-2069.26
5312	15.07	486.06	1152.16
5314	11.62	524.84	-2168.00
5317	13.72	544.92	-1861.29
5319	14.04	549.52	-2084.18
5320	17.96	561.37	-1486.60
5321	15.07	581.00	-1546.24
5326	15.37	580.72	1052.46
5328	17.87	592.06	180.68
5329	18.54	613.15	-1870.01
5331	16.47	600.39	913.08
5335	17.64	663.38	105.67
5337	19.66	688.68	-1864.12
5338	16.46	690.94	-2110.12
5340	18.76	673.87	1294.94
5341	19.52	696.30	1324.74
5342	15.85	723.50	-1176.88
5343	18.88	732.56	-1651.57
5345	18.43	743.16	-75.48
5346	15.92	768.48	-1839.38
5348	18.83	770.67	-1764.34
5349	15.25	759.09	1427.45
5353	19.76	797.46	1163.91
5354	17.67	836.69	-1841.31
5355	14.74	817.28	1173.21
5356	18.42	846.68	-771.97
5358	17.58	869.73	-1750.28
5359	18.79	865.72	-1152.17
5360	18.14	867.79	-1329.96
5361	17.39	887.09	-1840.91
5362	18.84	891.10	-1555.47
5363	18.28	884.97	-674.16
5364	15.19	857.15	1763.53
5365	17.91	910.81	-2207.60
5366	13.88	871.03	1200.48
5367	16.56	916.59	-1345.79
5368	14.68	888.66	1270.06
5369	16.21	927.46	-1628.26
5370	17.80	902.32	1314.89
5371	15.33	918.96	333.75
5372	19.00	943.44	-1371.48
5373	19.10	972.53	-2140.31
5374	19.56	978.29	-2239.89
5375	16.89	973.16	158.46
5376	15.74	981.10	-3.04
5377	16.29	1008.83	-1629.32
5378	15.26	981.60	1023.26
5380	19.41	1031.46	-1983.87
5381	14.87	1002.53	437.08
5382	18.86	998.46	835.72
5383	17.73	1022.01	-447.73
5384	13.99	1021.76	1210.71
5385	17.87	1063.03	-1383.53
5386	18.69	1051.39	-59.74
5387	16.89	1070.55	-1291.13
5388	17.61	1076.82	-1113.20
5389	14.14	1102.07	-1831.09
5390	18.10	1100.33	819.34
5391	16.38	1098.83	1385.22
5392	18.83	1148.94	-1118.95
5395	16.23	1141.26	767.10
5396	19.00	1160.92	-479.51
5399	15.01	1163.37	818.06
5400	15.25	1187.21	-663.80
5401	19.26	1204.55	-1649.62
5402	17.64	1170.87	797.13
5403	17.87	1186.23	294.54
5404	18.60	1175.49	1129.12
5405	17.70	1221.78	-1254.93
5406	18.26	1196.77	1477.76
5407	19.70	1215.25	970.80
5408	14.19	1266.89	-1743.30
5410	18.76	1245.61	618.58
5411	19.34	1245.61	1364.03
7005	10.41	-3681.12	-2933.45
7007	13.92	-3544.39	-1457.18
7008	12.27	-3503.73	-1014.10
7010	12.83	-3428.95	-766.81
7015	10.85	-3509.67	-3140.79
7019	11.28	-3341.23	-1827.06
7020	14.82	-3331.33	-2708.30
7021	13.32	-3319.45	-2298.84
7022	14.98	-3243.04	-834.79
7023	9.51	-3158.43	558.87
7024	12.48	-3053.82	-385.83
7025	14.24	-2959.00	842.60
7026	13.73	-3049.59	-1628.79
7028	11.70	-3084.75	-2904.76
7029	12.55	-2921.92	458.44
7032	12.70	-3001.99	-2906.38
7033	14.25	-2777.79	205.21
7037	14.92	-2750.03	124.18
7038	12.08	-2704.18	1341.47
7039	14.71	-2744.17	45.22
7041	14.47	-2815.39	-2174.25
7042	11.60	-2762.60	-1687.87
7044	14.40	-2637.13	963.84
7045	13.88	-2614.98	653.19
7046	12.02	-2589.30	393.04
7047	14.13	-2581.60	156.73
7049	13.52	-2575.27	-289.42
7050	14.68	-2612.04	-2330.61
7054	11.43	-2581.42	-2944.82
7058	14.73	-2443.42	564.95
7060	14.25	-2448.08	-140.53
7064	13.67	-2349.31	418.32
7067	14.64	-2356.65	-1143.32
7071	14.84	-2287.42	-683.30
7073	11.48	-2266.10	-1340.70
7074	15.37	-2256.41	-1119.74
7075	14.59	-2181.42	920.37
7076	13.42	-2184.74	810.43
7078	14.66	-2193.52	-949.99
7079	14.71	-2132.49	26.19
7080	15.35	-2059.67	941.66
7081	12.05	-2116.75	-1110.92
7082	11.02	-2097.45	-848.32
7085	14.95	-2015.93	-297.96
7089	12.83	-1789.31	877.83
7090	14.42	-1865.02	-2240.01
7091	15.03	-1802.69	-1216.08
7092	13.52	-1776.97	-822.84
7095	11.49	-1690.66	1160.64
7097	12.16	-1704.47	-868.33
7102	15.07	-1702.23	-2201.55
7103	13.07	-1697.75	-2202.22
7104	11.52	-1613.64	375.39
7106	12.54	-1549.93	107.88
7107	14.00	-1598.66	-2756.16
7109	12.53	-1583.96	-3136.47
7110	14.44	-1521.72	0.17
7111	18.05	-1488.53	1252.52
7112	15.25	-1499.02	467.31
7113	10.86	-1564.96	-2802.49
7115	10.10	-1515.55	-2368.46
7116	13.38	-1436.05	-1584.36
7117	13.55	-1471.42	-3345.85
7120	15.60	-1349.90	1114.06
7122	15.15	-1333.56	53.04
7126	16.29	-1173.96	1135.12
7129	11.10	-1127.38	-2333.51
7132	14.49	-1059.89	1037.81
7133	11.84	-1047.79	1085.20
7134	12.35	-1027.81	1185.49
7141	14.07	-926.62	1082.63
7144	12.33	-921.17	-3065.30
7145	13.58	-904.21	-2905.97
7148	10.38	-810.37	1407.03
7148	11.72	-810.37	1407.03
7148	10.38	-810.36	1408.23
7148	11.72	-810.36	1408.23
7152	13.88	-775.65	942.68
7161	11.31	-733.60	-1457.73
7163	15.28	-669.30	1328.65
7173	12.9	-486.94	-1601.06
7176	14.21	-385.70	-1433.15
7180	12.66	-378.05	-1960.65
7181	11.53	-358.97	1549.64
7183	13.65	-333.32	-917.98
7186	14.37	-307.14	-3131.45
7192	12.88	-257.99	-2408.20
7197	14.24	-214.72	-1878.76
7199	14.02	-179.08	-1838.30
7206	12.61	-125.95	-2825.42
7207	14.92	-128.95	-2824.20
7213	13.14	-17.90	-2435.22
7219	10.67	10.46	-2589.88
7219	12.21	10.46	-2589.88
7219	10.68	10.46	-2589.88
7227	11.29	88.10	1153.27
7235	13.1	174.59	44.61
7246	14.68	325.18	-398.98
7248	10.66	362.80	1069.43
7254	13.25	442.94	-421.82
7259	10.52	490.16	1176.27
8001	12.71	-994.82	4352.97
8002	8.37	793.33	4123.12
8003	13.60	49.09	4065.48
8004	10.70	459.51	3868.89
8005	11.22	-1874.92	3933.48
8006	13.53	262.69	3829.92
8007	13.79	-1855.90	3404.29
8008	12.94	-2044.35	3239.32
8009	12.03	1210.40	2749.12
8012	13.49	1001.25	2159.40
8013	13.80	-1062.30	2023.42
8014	12.38	-765.13	2052.24
8015	12.84	-429.87	1981.79
8017	13.58	-211.25	1792.90
8019	13.79	1148.16	1410.33
8020	13.02	925.56	1385.83
8021	10.02	-1199.87	1462.11
8021	10.38	-1199.87	1462.11
8021	11.40	-1199.87	1462.11
8023	12.27	-1553.91	1331.53
8024	11.77	658.05	1162.22
8026	14.58	-1974.02	1019.28
8028	9.91	1376.87	1048.33
8029	13.78	349.29	919.59
8030	13.90	1706.56	911.75
8034	11.23	-1722.82	711.33
8041	11.58	-2298.24	3929.64
8043	12.09	-2313.32	3475.42
8044	12.99	-2139.14	740.00
8046	12.66	228.28	4303.49
8047	13.49	-2280.00	4062.06
8048	11.45	-1190.26	3920.71
8051	12.40	391.78	2765.98
8051	12.73	391.78	2765.98
8051	12.40	391.78	2765.98
8051	12.73	391.78	2765.98
8052	12.57	-983.66	2814.89
8053	12.84	-1529.02	2804.78
8054	13.43	-58.51	2563.11
8055	9.92	-1943.78	2535.44
8057	14.02	-636.43	2457.55
8058	9.81	-2083.71	2280.63
8059	13.02	-2353.34	2270.24
8060	14.69	51.85	2147.94
8061	13.64	1095.65	2052.01
8062	11.40	185.13	2089.43
8064	9.84	1708.55	1847.74
8066	14.99	-980.89	1801.31
8067	9.32	1594.80	1289.11
8068	13.62	1132.20	1251.30
8069	13.42	1717.31	1183.75
8071	14.89	778.97	1031.19
8072	10.20	-2152.77	961.72
8076	13.16	1331.36	252.66
8078	10.01	1754.76	-19.34
