No	Mag	X	Y
--	---	-	-
0001	13.16	-296.46	-142.04
0002	13.23	-294.95	-124.04
0003	10.90	-295.22	-175.05
0004	12.01	-294.73	-81.44
0005	12.40	-293.37	-91.05
0006	12.38	-289.50	-161.88
0007	12.95	-289.20	-104.87
0008	12.77	-283.27	-46.69
0009	11.39	-277.80	-81.52
0010	12.83	-278.45	-211.74
0011	12.28	-273.24	-13.74
0012	12.79	-266.31	-35.97
0013	12.56	-262.64	-157.20
0014	11.66	-261.40	-194.41
0015	11.22	-262.96	-226.21
0016	9.22	-256.91	-138.63
0017	12.85	-257.08	-176.43
0018	12.22	-254.72	32.38
0019	13.50	-252.30	-54.64
0020	11.40	-247.55	63.55
0021	12.99	-245.32	-71.47
0022	12.06	-247.45	-234.08
0023	11.29	-243.90	-67.28
0024	13.19	-246.10	-249.69
0025	13.36	-241.72	-217.30
0026	12.24	-238.62	-152.51
0027	11.44	-234.18	-104.52
0028	12.58	-229.21	75.47
0029	13.25	-230.41	-216.75
0030	11.40	-227.84	67.07
0031	9.79	-220.27	-153.78
0032	11.65	-220.19	-133.98
0033	12.86	-217.21	-93.79
0034	9.50	-219.41	-297.81
0035	12.29	-216.63	56.22
0036	11.86	-214.88	-221.61
0037	12.70	-212.53	23.80
0038	8.70	-212.59	8.20
0039	12.32	-213.83	-317.64
0040	7.80	-207.33	-92.62
0041	13.29	-205.59	-2.62
0042	12.30	-206.20	-169.44
0043	10.76	-204.48	-84.83
0044	10.60	-201.65	-82.44
0045	8.26	-201.97	-170.05
0046	13.52	-196.71	119.75
0047	9.87	-199.63	-308.69
0048	12.31	-193.39	-140.68
0049	10.66	-193.59	-198.88
0050	6.75	-193.80	-260.09
0051	12.53	-192.49	-290.70
0052	12.28	-192.59	-317.71
0053	13.06	-192.59	-318.31
0054	11.16	-188.30	114.32
0055	11.41	-188.80	-35.09
0056	11.95	-187.68	-122.09
0057	13.51	-185.72	45.91
0058	11.27	-185.87	-0.89
0059	13.82	-184.66	-61.50
0060	12.92	-186.56	-207.31
0061	12.67	-187.10	-372.95
0062	13.60	-180.07	51.89
0063	11.94	-182.47	-254.73
0064	11.30	-182.81	-360.36
0065	13.08	-178.63	60.89
0066	12.55	-178.72	33.89
0067	13.73	-179.05	-68.72
0068	11.94	-179.34	-158.72
0069	12.47	-177.49	-24.32
0070	11.83	-178.27	-271.54
0071	13.78	-175.55	-304.56
0072	13.52	-172.30	-169.55
0073	12.39	-168.82	50.66
0074	12.85	-170.47	-30.94
0075	10.54	-168.82	50.66
0076	11.74	-165.74	140.65
0077	12.83	-165.73	142.45
0078	12.57	-168.43	-290.18
0079	12.10	-164.75	-0.96
0080	13.60	-164.63	38.64
0081	12.64	-161.14	-216.98
0082	13.64	-158.29	-205.59
0083	11.71	-156.51	-77.19
0084	12.93	-154.88	1.41
0085	12.34	-156.22	26.62
0086	11.09	-155.96	-388.04
0087	13.34	-155.60	-260.21
0088	12.63	-156.91	-221.20
0089	11.25	-155.32	-157.59
0090	10.89	-154.10	-224.81
0091	11.39	-151.63	-360.44
0092	13.32	-150.00	-279.43
0093	14.15	-149.06	74.60
0094	7.85	-143.42	78.19
0095	13.70	-142.20	8.58
0096	12.24	-141.92	118.39
0097	13.06	-141.14	-134.23
0098	12.58	-142.54	-126.42
0099	11.88	-140.74	25.38
0100	10.55	-225.13	42.45
0101	13.56	-140.91	-42.42
0102	12.41	-132.30	24.76
0103	13.30	-134.29	-218.25
0104	11.50	-133.11	-317.88
0105	12.28	-130.83	51.15
0106	12.44	-131.22	-114.45
0107	11.64	-131.49	-232.66
0108	10.00	-129.98	-188.86
0109	9.17	-126.83	-46.66
0110	13.76	-127.00	-120.46
0111	12.95	-125.54	-97.06
0112	12.12	-124.13	-100.07
0113	13.57	-120.89	94.33
0114	8.14	-122.50	0.13
0115	13.79	-121.17	-32.27
0116	12.55	-124.29	-172.67
0117	10.56	-121.36	-123.47
0118	13.48	-121.62	-245.28
0119	13.44	-121.76	-308.90
0120	13.15	-117.67	-382.73
0121	11.38	-111.21	16.31
0122	12.35	-110.12	-148.70
0123	13.01	-108.12	157.31
0124	8.99	-108.76	-176.30
0125	13.83	-105.64	-19.10
0126	13.46	-107.30	-151.70
0127	10.80	-104.14	28.30
0128	13.99	-105.82	-115.10
0129	11.93	-103.06	-147.51
0130	11.48	-101.36	11.49
0131	12.81	-103.40	-332.94
0132	13.63	-100.48	-287.93
0133	12.59	-100.55	-325.74
0134	10.18	-96.23	-284.94
0135	11.87	-93.10	-104.33
0136	12.68	-93.36	-263.94
0137	13.16	-90.67	-343.16
0138	11.18	-90.44	-203.34
0139	11.88	-88.70	6.07
0140	13.10	-87.40	-70.73
0141	12.39	-86.26	-238.75
0142	9.30	-86.04	-95.34
0143	8.31	-85.89	3.67
0144	13.86	-84.81	-216.54
0145	13.52	-83.02	36.66
0146	9.38	-83.00	45.66
0147	13.13	-82.22	-383.99
0148	11.49	-83.57	-339.57
0149	12.37	-82.02	-246.55
0150	7.45	-81.83	-112.74
0151	12.77	-80.26	-2.94
0152	14.12	-80.59	-233.95
0153	13.28	-75.98	39.65
0154	8.50	-77.64	-142.75
0155	9.41	-76.18	-112.15
0156	8.98	-76.54	-373.79
0157	11.84	-73.72	-381.00
0158	13.67	-72.03	-171.56
0159	12.28	-70.24	128.45
0160	13.74	-70.21	150.05
0161	11.78	-72.29	-379.20
0162	10.59	-72.21	-314.38
0163	13.64	-70.59	-155.96
0164	11.31	-70.30	79.84
0165	13.48	-67.99	-335.99
0166	13.13	-67.93	-287.98
0167	9.22	-63.34	22.84
0168	13.05	-63.20	142.84
0169	12.51	-62.21	-234.58
0170	12.89	-62.32	-331.20
0171	13.09	-58.96	168.64
0172	12.53	-59.18	-46.17
0173	12.83	-59.46	-311.39
0174	11.54	-60.93	-360.61
0175	12.96	-58.08	-343.20
0176	13.21	-56.29	31.83
0177	13.55	-55.20	-298.19
0178	13.49	-51.96	149.43
0179	12.23	-53.47	34.23
0180	13.86	-52.10	3.62
0181	10.51	-55.10	-190.78
0182	10.34	-47.85	28.82
0183	12.61	-49.34	-73.18
0184	11.63	-49.44	-185.38
0185	12.78	-46.40	80.42
0186	13.60	-45.06	-12.58
0187	12.36	-45.15	-122.38
0188	13.28	-43.52	165.02
0189	13.69	-43.54	135.62
0190	9.06	-43.60	64.82
0191	13.04	-45.27	-266.40
0192	10.96	-43.84	-249.60
0193	12.96	-39.42	7.21
0194	12.88	-39.42	6.61
0195	12.79	-39.54	-171.59
0196	10.74	-39.70	-400.24
0197	13.19	-38.11	-140.99
0198	12.62	-35.32	-197.40
0199	13.48	-32.39	-15.59
0200	13.35	-34.03	-390.64
0201	12.95	-32.45	-122.39
0202	13.86	-30.94	62.41
0203	7.72	-30.95	34.81
0204	6.67	-31.01	-75.59
0205	13.45	-31.15	-331.82
0206	11.41	-28.26	-203.40
0207	7.67	-26.87	-256.81
0208	10.67	-25.44	-223.80
0209	12.73	-23.96	-58.20
0210	13.70	-19.72	-42.00
0211	13.90	-18.38	-241.21
0212	6.59	-18.36	-161.40
0213	11.81	-18.36	-157.80
0214	13.64	-18.35	-153.60
0215	11.30	-16.90	-15.00
0216	10.22	-16.84	198.01
0217	10.24	-15.55	-243.61
0218	9.37	-15.43	205.81
0219	12.65	-15.59	-384.04
0220	13.94	-15.57	-299.42
0221	12.00	-14.09	-60.00
0222	10.11	-12.66	27.60
0223	13.37	-9.89	-201.61
0224	7.32	-11.29	-157.20
0225	13.34	-11.34	-379.24
0226	8.89	-8.44	61.20
0227	9.49	-8.49	-284.42
0228	13.62	-8.48	-231.01
0229	8.39	-8.47	-160.80
0230	9.78	-7.05	-115.20
0231	12.10	-7.05	-70.20
0232	9.23	-7.04	15.60
0233	13.81	-5.66	-300.02
0234	9.96	-2.83	-374.44
0235	12.59	-5.66	-235.21
0236	11.93	-5.65	-151.80
0237	12.87	-5.65	-148.20
0238	10.29	-4.23	-65.40
0239	9.66	-4.22	52.80
0240	13.06	-2.82	-72.60
0241	12.82	-2.82	-25.80
0242	12.70	-2.84	-397.25
0243	12.63	-1.40	189.01
0244	10.05	-1.42	-356.44
0245	13.06	0.00	-353.44
0246	12.05	0.00	-73.80
0247	12.88	0.00	70.20
0248	11.53	0.00	73.20
0249	13.90	1.42	-360.04
0250	9.79	1.42	-93.60
0251	13.98	2.82	-145.80
0252	13.12	2.82	-120.00
0253	6.39	2.82	6.60
0254	13.80	4.22	44.40
0255	11.61	4.21	141.00
0256	12.63	4.25	-346.83
0257	11.01	4.24	-245.41
0258	10.24	4.24	-192.61
0259	12.80	5.62	138.00
0260	13.42	5.62	139.20
0261	13.90	7.09	-343.23
0262	13.67	8.47	-164.40
0263	12.00	8.47	-132.00
0264	12.59	9.82	175.21
0265	6.61	9.86	-6.60
0266	11.70	9.89	-196.81
0267	13.18	14.10	-75.60
0268	9.89	12.71	-126.00
0269	12.90	11.32	-296.42
0270	11.74	16.84	208.21
0271	8.81	15.49	1.80
0272	12.70	16.91	-26.40
0273	12.35	18.30	31.80
0274	11.56	18.31	-18.00
0275	9.96	19.74	-72.60
0276	7.54	19.77	-164.40
0277	12.72	19.80	-250.81
0278	13.24	19.87	-447.67
0279	7.70	23.99	-108.60
0280	13.86	22.60	-162.60
0281	12.53	22.67	-343.83
0282	10.08	25.32	42.60
0283	6.43	25.39	-114.59
0284	6.78	22.62	-230.41
0285	13.14	28.09	153.01
0286	8.02	26.78	-55.19
0287	10.37	26.80	-113.39
0288	10.70	26.84	-188.40
0290	12.79	30.87	196.81
0291	10.38	32.30	142.81
0292	8.19	30.94	69.61
0293	9.87	31.08	-184.20
0294	13.48	31.16	-344.42
0295	9.38	31.04	-108.59
0296	13.85	33.72	124.81
0297	11.64	33.73	117.01
0298	14.00	33.76	67.21
0299	13.21	33.87	-119.99
0300	6.30	32.48	-159.59
0301	11.16	33.95	-255.60
0302	11.89	34.06	-448.26
0303	12.43	36.83	-336.62
0304	11.52	37.97	76.81
0305	12.06	39.45	-24.59
0306	13.75	38.16	-208.79
0307	13.37	38.25	-346.22
0308	13.26	36.84	-351.62
0309	11.63	39.46	-49.79
0310	12.98	39.59	-227.40
0311	10.71	38.27	-372.63
0312	13.01	38.28	-385.83
0313	12.19	42.34	-127.79
0314	13.17	41.14	-424.25
0315	12.22	43.55	136.22
0316	13.43	43.71	-77.38
0317	13.08	43.78	-163.79
0318	8.66	41.04	-285.60
0319	14.04	42.47	-303.01
0320	12.48	45.29	-288.60
0321	11.71	47.90	-30.58
0322	10.87	50.80	-114.58
0323	7.80	50.94	-273.59
0324	10.80	53.31	209.43
0325	10.61	55.18	-275.39
0326	11.34	55.06	-151.78
0327	11.63	53.50	9.62
0328	6.85	55.01	-96.58
0329	13.62	56.33	-7.17
0330	13.55	57.53	190.24
0331	13.76	59.22	-74.97
0332	9.56	60.81	-244.18
0333	10.35	60.72	-160.17
0334	11.01	62.09	-118.17
0335	11.02	61.98	-23.96
0336	11.46	63.80	-390.61
0337	12.73	65.25	-417.02
0338	11.56	65.13	-309.59
0339	13.76	64.84	-57.56
0340	8.48	67.47	100.24
0341	10.30	69.22	-181.76
0342	13.02	70.45	-40.76
0343	13.43	70.77	-289.78
0344	12.11	71.83	-19.16
0345	13.58	73.46	-182.96
0346	13.25	73.38	-126.56
0347	12.59	73.28	-44.35
0348	6.79	73.41	-146.96
0349	12.23	74.75	-91.15
0350	8.71	74.65	-19.15
0351	13.78	77.69	-181.75
0352	13.30	80.32	-40.14
0353	12.35	81.42	169.26
0354	13.27	87.20	64.87
0355	13.66	86.03	-86.94
0356	11.04	86.15	-167.34
0357	12.73	86.28	-252.55
0358	12.72	87.56	-170.34
0359	13.78	90.33	-137.33
0360	11.76	89.06	-222.54
0361	11.87	91.58	-29.33
0362	13.93	91.59	-40.73
0363	12.44	90.43	-194.93
0364	13.42	90.58	-286.75
0365	10.18	90.64	-329.96
0366	13.48	92.88	31.88
0367	10.70	93.01	-47.92
0368	11.51	94.44	-60.52
0369	14.01	95.72	14.48
0370	9.04	94.43	-56.92
0371	10.11	93.22	-172.13
0372	13.03	95.67	46.88
0373	12.56	94.93	-353.96
0374	13.74	98.46	55.89
0375	8.33	98.60	-23.91
0376	12.97	97.48	-184.12
0377	6.73	98.25	175.89
0378	13.85	99.24	-384.56
0379	11.88	99.31	-424.18
0380	13.66	103.05	-140.91
0381	13.50	103.13	-184.11
0382	13.27	103.35	-304.73
0383	13.78	103.42	-346.14
0384	13.03	188.69	-423.36
0385	7.92	106.09	-261.52
0386	11.54	106.41	-427.17
0387	11.88	109.83	-2.29
0388	13.12	110.52	-352.73
0389	13.64	113.85	100.32
0390	12.96	113.41	-379.13
0391	13.28	116.55	152.53
0392	10.74	115.49	-15.48
0393	14.06	115.77	-152.29
0394	12.91	114.90	-419.35
0395	13.58	118.08	92.53
0396	9.87	117.20	-160.08
0397	11.70	118.75	-221.89
0398	11.77	120.94	72.13
0399	10.95	119.87	-86.87
0400	11.50	124.28	-166.07
0401	12.97	123.38	-401.32
0402	13.28	124.69	-351.50
0403	11.71	126.74	-6.46
0404	12.64	128.35	-92.26
0405	12.21	129.00	-378.50
0406	12.90	129.92	-161.86
0407	8.50	128.40	-116.86
0408	11.94	129.78	-102.45
0409	13.07	129.28	113.55
0410	12.46	130.57	159.16
0411	9.32	131.66	-304.07
0412	12.08	130.59	150.76
0413	12.52	133.15	-337.08
0414	13.05	133.58	79.36
0415	13.09	135.80	-259.66
0416	9.59	139.69	-117.43
0417	12.36	140.83	-8.82
0418	10.47	140.59	86.58
0419	13.04	141.45	-257.84
0420	12.80	142.49	-112.02
0421	10.16	144.29	-259.04
0422	13.76	142.59	-149.22
0423	11.36	145.83	-307.64
0424	12.08	147.04	-230.22
0425	11.41	146.98	-206.82
0426	13.19	148.92	-407.87
0427	11.94	148.49	-244.02
0428	6.90	149.36	-40.60
0429	8.54	153.31	62.01
0430	12.05	151.90	65.01
0431	13.09	155.60	-260.21
0432	11.04	158.00	-107.18
0433	11.03	158.06	-126.98
0434	11.38	157.03	-262.60
0435	11.98	157.05	-271.00
0436	12.93	162.95	134.04
0437	14.06	161.91	5.63
0438	12.66	162.00	-24.97
0439	9.45	163.04	-386.82
0440	12.32	166.75	-200.77
0441	13.98	166.35	-67.56
0442	14.09	168.09	-176.16
0443	10.63	172.21	-138.94
0444	13.13	174.03	-270.96
0445	7.96	173.83	-206.75
0446	13.22	178.64	57.29
0447	12.44	181.44	61.50
0448	12.15	181.05	-255.33
0449	7.94	181.45	-378.97
0450	12.43	185.65	66.31
0451	13.82	185.79	23.71
0452	12.41	186.17	-91.50
0453	13.72	186.20	-99.30
0454	9.88	186.22	-107.10
0455	13.17	187.71	-132.29
0456	12.42	189.57	152.73
0457	11.26	189.00	-94.49
0458	9.72	191.44	18.33
0459	9.23	192.66	70.53
0460	12.10	195.56	47.74
0461	11.43	195.35	107.75
0462	10.99	199.04	-143.06
0463	12.06	202.40	102.97
0464	13.62	208.30	-356.07
0465	14.20	208.71	-82.42
0466	10.99	210.59	-212.03
0467	13.13	209.89	-23.01
0468	13.16	211.85	-170.01
0469	12.61	215.42	-363.25
0470	12.50	217.97	-291.81
0471	12.14	222.28	-306.80
0472	9.77	221.69	-159.18
0473	13.63	224.45	-139.96
0474	12.13	225.81	-130.36
0475	12.98	225.71	-103.95
0476	11.62	225.16	-318.80
0477	12.22	228.09	5.26
0478	9.74	227.29	-145.95
0479	13.17	227.66	-238.97
0480	11.58	229.49	-337.99
0481	13.57	228.62	-123.75
0482	12.32	231.78	133.09
0483	13.84	231.48	-134.53
0484	11.98	231.69	-186.74
0485	12.22	234.71	-232.34
0486	13.52	239.59	-48.09
0487	13.72	244.08	-109.28
0488	11.43	248.67	127.16
0489	11.86	251.17	-115.85
0490	13.07	249.96	-162.06
0491	12.46	254.32	-191.45
0492	12.12	253.38	-294.07
0493	10.94	252.71	-145.25
0494	12.12	256.00	-249.05
0495	9.97	258.59	-196.83
0496	9.60	260.62	-330.05
0497	13.50	264.77	-307.83
0498	11.78	264.10	-165.00
0499	11.07	264.30	90.03
0500	12.22	267.52	-292.21
0501	13.36	266.69	-116.98
0502	12.12	265.72	88.84
0503	13.28	270.59	-340.81
0504	13.34	271.84	-306.60
0505	12.86	272.68	102.07
0506	13.64	274.26	-221.96
0507	13.00	273.45	-55.74
0508	10.78	277.79	-77.32
0509	13.07	283.02	-277.13
0510	12.76	284.73	-55.69
0511	13.58	285.26	-160.70
0512	12.26	286.08	-322.13
0513	11.74	292.89	-269.28
0514	12.34	294.76	-86.24
0515	10.14	298.14	73.40
0516	12.38	298.92	-74.21
0517	12.30	301.52	-32.20
0518	12.86	303.77	-188.21
0519	13.00	309.98	-32.75
0520	12.62	316.59	-207.34
0521	12.26	318.43	-282.35
0522	12.77	322.51	-254.12
0523	12.85	323.97	-15.27
0524	10.50	324.47	-101.68
0525	12.76	331.84	-155.04
0526	12.36	332.54	-35.02
0527	13.27	334.65	-153.83
0528	12.18	335.84	-116.01
0529	14.05	338.33	-60.79
0530	12.26	342.24	-240.21
0531	12.26	349.80	-91.93
0532	12.57	-324.64	-132.28
0533	11.59	-320.57	-161.11
0534	7.51	-320.33	126.33
0535	12.65	-303.69	86.03
0536	9.45	-301.90	-368.87
0537	11.65	-279.98	48.10
0538	8.65	-276.54	-398.41
0539	11.18	-278.70	-263.35
0540	11.03	-243.14	106.14
0541	10.66	-213.02	-480.91
0542	11.72	-164.27	161.65
0543	11.45	-154.31	208.43
0544	12.44	-110.82	211.32
0545	12.63	19.89	-516.71
0546	11.62	44.02	-472.87
0547	11.99	49.69	-463.86
0548	10.01	262.68	137.43
0549	10.12	314.99	-425.83
0550	12.37	317.89	63.91
0551	12.67	328.98	-392.14
0552	8.38	330.10	-341.71
0553	10.15	341.98	34.05
0556	10.49	389.34	-97.07
0557	10.38	399.25	-101.80
0559	14.03	-133.88	-46.04
0560	13.96	-95.63	69.08
0561	14.42	-85.86	19.27
0563	16.11	-76.13	-73.75
0564	17.12	-70.38	11.45
0566	14.95	-68.96	29.44
0568	14.12	-52.25	-164.38
0569	15.20	-38.06	-62.39
0570	15.35	-32.38	0.61
0571	15.41	-32.38	13.81
0572	14.57	1.42	-83.40
0573	16.06	14.10	-86.40
0574	13.63	91.56	-19.13
0575	14.30	99.94	18.09
0576	13.71	101.54	-86.31
0577	14.68	111.05	94.31
0701	15.58	-677.69	-246.88
0702	15.09	-675.25	-398.24
0703	14.34	-672.13	-255.95
0704	11.00	-666.65	-633.22
0705	14.12	-664.55	-575.56
0706	9.06	-660.79	-497.50
0707	13.03	-648.14	-17.27
0708	15.63	-644.72	-584.78
0709	15.98	-634.98	-605.31
0710	12.34	-626.92	-10.91
0711	14.69	-620.59	-592.84
0712	12.92	-616.32	-462.53
0713	13.11	-611.32	-3.28
0714	15.84	-611.34	-395.92
0715	13.23	-607.69	-451.81
0716	13.54	-597.93	-469.92
0717	8.33	-596.72	-354.63
0718	13.98	-575.28	-200.55
0719	15.78	-566.45	-306.30
0720	16.19	-566.55	-458.82
0721	15.79	-561.47	-232.50
0722	14.55	-557.92	-592.24
0723	15.29	-553.04	-529.21
0724	11.79	-552.43	-613.31
0725	16.32	-549.17	-278.25
0726	14.68	-541.83	-547.33
0727	15.84	-527.43	-73.75
0728	15.27	-516.12	-225.12
0729	16.15	-512.66	-1.26
0731	16.43	-512.00	-239.56
0733	14.13	-499.15	-66.20
0735	13.27	-479.43	-70.58
0737	15.29	-465.22	-573.19
0739	16.06	-449.73	-594.32
0740	16.45	-448.65	-638.18
0741	16.51	-445.62	-434.01
0742	13.75	-426.26	-502.60
0743	10.81	-426.73	-565.66
0744	16.38	-417.33	-641.41
0745	16.46	-411.07	-368.82
0747	14.75	-399.51	-138.41
0748	15.38	-382.80	-381.61
0749	15.72	-379.80	-357.62
0751	14.74	-363.59	-42.63
0752	16.24	-360.46	-659.78
0755	14.86	-338.11	-24.79
0756	16.61	-332.53	-273.27
0757	15.21	-333.56	-447.35
0758	15.72	-328.34	-40.45
0760	15.41	-324.69	-635.95
0762	16.23	-312.94	-570.55
0763	15.61	-305.81	-44.77
0765	14.74	-298.99	-353.88
0766	16.40	-297.26	-26.82
0767	16.24	-298.49	-259.65
0768	14.86	-292.99	-289.69
0770	14.00	-285.02	-394.17
0771	12.95	-278.49	-507.67
0774	16.63	-275.77	-242.36
0777	15.72	-271.94	-623.59
0778	14.16	-268.69	-538.33
0780	15.22	-265.06	-369.65
0781	14.79	-264.84	-323.43
0783	15.94	-255.30	-96.03
0784	16.65	-255.61	-163.24
0785	13.64	-254.78	-292.27
0786	15.74	-254.10	-456.74
0787	14.22	-254.19	-476.55
0789	15.99	-240.60	-620.12
0790	15.26	-236.77	-49.30
0793	11.24	-235.01	-646.57
0794	13.27	-232.06	-621.95
0795	12.49	-226.19	-577.53
0797	14.87	-222.29	-308.60
0801	15.89	-218.96	-545.74
0803	16.11	-214.68	-168.80
0804	16.48	-214.13	-398.06
0805	16.82	-212.13	-244.43
0809	13.15	-206.14	-542.78
0816	15.88	-189.26	-171.29
0819	15.85	-169.18	-542.29
0820	16.51	-163.24	-454.05
0821	13.89	-155.09	-72.39
0823	13.28	-143.48	-496.73
0824	16.01	-136.78	-80.83
0826	16.29	-128.31	-77.86
0828	16.66	-128.13	-622.26
0829	15.53	-125.15	-560.41
0830	15.86	-125.34	-648.69
0832	14.59	-115.88	-204.49
0835	14.91	-105.81	-107.30
0836	12.72	-103.93	-620.50
0837	14.19	-100.24	-150.51
0838	15.92	-96.18	-254.33
0839	15.60	-96.74	-584.48
0843	16.92	-86.14	-164.34
0844	13.75	36.74	-199.79
0850	15.70	-75.43	-604.93
0851	10.25	-74.07	-652.97
0853	16.73	-67.89	-253.17
0854	14.64	-66.23	-45.56
0855	16.47	-66.26	-70.16
0856	15.25	-66.41	-196.17
0857	15.87	-62.14	-169.77
0859	16.01	-56.80	-476.46
0865	15.12	-38.14	-181.19
0866	14.38	-38.19	-262.20
0869	12.30	-35.61	-654.81
0873	15.33	-24.05	-277.81
0874	9.29	-18.50	-591.16
0880	14.44	-4.24	-244.81
0881	20.00	-4.25	-378.64
0882	10.18	-2.83	-355.83
0883	15.69	-1.42	-374.44
0891	14.44	8.53	-571.35
0895	13.87	15.59	-370.84
0897	13.77	16.96	-190.80
0898	13.43	18.45	-430.86
0900	16.11	24.10	-382.24
0901	13.82	25.47	-290.41
0904	16.45	29.67	-187.80
0911	16.00	35.44	-379.23
0912	15.20	38.09	-105.59
0919	14.36	51.07	-421.24
0921	13.05	58.22	-479.46
0927	15.83	70.68	-219.56
0929	14.71	73.88	-505.86
0932	13.67	79.51	-472.83
0933	12.07	81.09	-583.30
0937	13.48	91.56	-19.13
0941	16.48	94.61	-164.93
0942	16.51	96.80	-619.31
0943	14.10	97.44	-160.12
0945	16.38	100.62	-366.55
0947	15.59	103.79	-543.64
0950	16.00	107.27	-131.30
0953	15.73	116.76	-631.29
0955	16.00	118.82	-255.49
0959	14.17	131.69	-316.68
0964	15.70	141.43	-246.44
0966	19.20	145.94	-350.85
0969	14.50	150.01	-284.83
0970	16.30	149.57	-118.01
0974	16.48	162.18	-86.77
0979	13.70	182.54	-278.13
1008	10.49	-538.50	95.62
1023	9.69	-515.03	-260.55
1026	13.43	-509.05	-69.72
1028	10.77	-505.14	50.89
1035	10.04	-492.94	-162.29
1050	13.35	-479.43	-69.98
1062	10.73	-465.05	-380.43
1072	12.73	-457.08	-271.83
1105	13.39	-418.25	0.36
1129	11.83	-405.07	-126.97
1133	6.58	-402.38	-143.79
1142	10.34	-389.56	74.57
1166	7.56	-365.24	-78.63
1169	12.87	-365.54	-125.44
1184	11.85	-348.76	301.15
1187	13.64	-346.51	-15.13
1193	13.11	-344.62	-166.97
1242	20.00	-319.51	-473.24
1257	12.41	-312.80	-287.19
1288	11.86	-287.52	222.77
1299	8.82	-288.64	-547.85
1323	13.93	-275.35	-155.94
1330	13.97	-271.95	-328.80
1336	12.73	-268.24	-444.07
1404	13.94	-237.33	-181.32
1410	8.48	-234.01	-403.39
1438	13.83	-223.20	-181.37
1452	13.87	-216.66	-318.83
1459	12.83	-209.86	360.45
1460	10.60	-213.02	-480.91
1468	13.37	-209.37	-261.24
1497	20.00	-194.80	-140.67
1517	20.00	-184.59	387.37
1588	11.34	-154.31	207.83
1611	12.18	-149.39	-582.57
1669	13.74	-121.85	-348.51
1692	13.55	-107.31	-152.30
1705	12.58	-103.93	-621.10
1728	13.79	-93.15	-135.53
1751	13.79	-84.74	-168.54
1766	13.32	-80.76	-352.78
1802	20.00	-63.44	-67.77
1809	11.86	-61.65	276.65
1858	13.45	-43.38	348.05
1874	12.92	-34.03	-390.64
1901	13.91	15.54	-190.80
1902	14.23	97.44	-160.72
1941	13.42	-4.25	-378.04
1955	9.21	2.80	386.44
1995	12.98	21.09	73.20
2025	11.60	31.28	-552.73
2029	12.90	32.54	-277.21
2030	20.00	33.60	323.44
2074	20.00	52.23	-140.98
2085	12.89	58.22	-479.46
2107	20.00	70.69	-231.57
2109	20.00	70.68	-219.56
2121	11.91	81.09	-583.30
2146	11.92	92.43	304.30
2174	13.45	103.67	284.52
2183	13.55	107.26	-127.10
2189	13.08	111.98	-379.14
2217	11.01	124.76	249.76
2218	10.41	126.51	-535.19
2219	20.00	125.40	-37.66
2233	13.57	132.75	-167.85
2236	9.68	133.18	246.78
2246	20.00	92.43	304.30
2256	13.69	146.94	-190.02
2278	11.27	159.56	335.67
2281	13.23	160.40	43.43
2286	14.62	164.07	-252.38
2307	13.52	182.48	-258.93
2319	13.70	189.57	153.33
2325	13.51	193.94	-300.30
2353	10.13	219.06	-575.16
2369	20.00	227.43	-181.36
2374	20.00	229.76	-405.21
2376	12.57	230.05	211.69
2384	8.84	235.30	300.54
2396	12.45	246.68	-381.73
2418	20.00	258.01	-69.61
2432	12.31	266.89	430.34
2436	13.58	268.81	29.45
2445	20.00	274.26	-222.56
2449	11.82	279.27	189.72
2464	20.00	286.39	-383.36
2476	20.00	294.76	-86.24
2481	13.41	296.44	129.80
2483	20.00	296.74	73.39
2504	13.38	311.60	-326.81
2517	20.00	323.50	-426.39
2529	20.00	295.54	823.31
2538	13.26	328.64	-92.65
2612	20.00	370.80	-67.79
2634	20.00	386.52	-97.09
2665	13.02	399.14	111.84
2673	11.03	412.95	335.22
2676	11.80	417.01	166.59
2680	10.40	421.45	136.01
2686	11.91	425.57	149.25
2692	10.92	435.97	-105.14
2700	9.51	446.70	-391.98
2717	8.51	455.07	149.49
2736	8.03	487.35	-334.02
2743	11.13	489.82	-129.31
2772	8.39	523.40	-96.60
2780	12.82	538.57	-353.99
2799	20.00	561.80	-266.72
2807	10.75	570.22	-118.96
2903	20.00	39.09	477.70
2904	20.00	41.81	566.56
2905	20.00	270.85	189.68
3001	9.77	-694.90	640.91
3002	11.06	-676.71	646.68
3003	9.78	-673.67	-147.85
3004	9.02	-660.80	-498.10
3005	10.01	-655.31	-149.27
3006	11.27	-650.01	306.35
3007	11.06	-658.42	-538.38
3008	12.82	-646.54	363.96
3009	10.42	-657.99	-746.90
3010	17.40	-634.56	309.17
3011	17.43	-640.53	-216.07
3012	13.29	-636.28	33.62
3013	17.73	-609.23	188.80
3016	16.71	-611.39	-532.26
3018	16.02	-609.54	-757.61
3019	16.96	-595.80	263.70
3020	17.17	-589.20	489.41
3022	17.17	-592.73	-380.50
3023	13.86	-588.20	51.70
3024	17.35	-592.20	-465.18
3025	12.71	-574.82	257.47
3026	17.22	-580.09	-255.13
3027	16.39	-579.42	-327.79
3028	15.97	-582.92	-668.91
3029	17.45	-573.08	153.59
3030	17.29	-570.22	432.74
3032	17.39	-573.77	-470.16
3033	17.68	-557.96	539.52
3034	16.47	-562.67	70.05
3036	17.02	-554.16	360.52
3037	17.72	-560.38	-697.36
3038	10.71	-545.66	370.64
3039	16.25	-555.80	-665.55
3040	15.11	-551.61	-529.22
3041	17.07	-547.25	-371.92
3044	17.13	-539.27	-428.44
3045	14.60	-528.81	523.60
3047	16.79	-521.95	-551.11
3051	12.80	-506.51	211.16
3053	17.45	-506.17	248.98
3055	17.70	-501.10	499.90
3057	16.01	-492.56	359.91
3058	13.85	-485.87	485.34
3059	16.26	-484.82	284.80
3061	17.20	-465.88	538.01
3062	17.19	-466.87	-428.45
3063	16.06	-461.30	75.72
3066	16.19	-455.86	-121.19
3067	17.15	-452.50	-54.59
3068	17.48	-448.80	231.06
3069	12.96	-443.50	369.09
3070	13.79	-450.64	-709.06
3073	17.01	-438.85	425.48
3074	16.82	-438.18	-207.75
3075	16.00	-436.24	41.90
3076	11.08	-427.87	398.98
3077	17.52	-433.71	-362.05
3078	16.54	-423.00	302.89
3080	11.19	-409.07	671.48
3081	17.21	-412.93	147.95
3083	10.64	-407.68	290.16
3084	17.03	-405.76	-26.74
3086	17.36	-404.61	-657.11
3087	17.09	-399.51	-538.82
3089	16.17	-387.98	302.02
3090	17.12	-386.90	-359.38
3093	17.51	-375.65	-587.61
3094	17.28	-373.82	-310.84
3095	17.34	-373.40	-461.52
3098	17.44	-357.31	58.15
3099	17.20	-358.77	-393.77
3101	17.29	-351.29	-104.52
3103	10.89	-353.35	-662.83
3105	16.84	-345.18	-725.35
3106	17.89	-339.43	-10.38
3108	16.90	-334.69	311.87
3109	15.65	-335.06	249.45
3111	17.54	-332.68	-299.08
3114	16.60	-328.10	-240.89
3115	16.29	-330.77	-701.40
3117	15.41	-322.43	250.57
3118	14.57	-321.31	202.55
3119	15.72	-322.20	46.53
3120	17.60	-322.02	-167.70
3121	16.83	-321.01	7.52
3124	16.97	-319.01	-385.59
3125	17.33	-313.59	326.75
3126	16.98	-313.59	77.69
3128	16.06	-308.89	417.36
3130	17.11	-310.21	-332.21
3131	14.04	-304.75	407.13
3133	12.64	-305.10	86.04
3134	10.96	-306.79	-747.78
3138	17.61	-297.95	-157.63
3139	16.71	-295.17	102.79
3141	17.78	-289.36	138.76
3143	12.89	-285.08	151.34
3144	16.09	-287.51	-606.11
3151	16.49	-271.41	363.13
3156	14.46	-262.06	567.21
3157	15.63	-264.17	118.23
3158	17.19	-265.39	-140.99
3161	17.69	-262.00	-323.44
3163	16.84	-255.95	-238.25
3166	16.48	-242.53	248.35
3169	14.67	-242.74	199.75
3170	16.30	-241.23	224.94
3171	16.47	-237.88	351.56
3174	16.69	-232.32	-337.37
3175	14.35	-232.23	-663.40
3176	17.54	-227.41	174.48
3177	16.28	-230.68	-630.97
3178	15.60	-226.13	-206.56
3181	15.40	-220.20	222.45
3183	17.27	-221.09	-365.03
3191	15.37	-210.90	84.40
3192	17.52	-211.22	-379.47
3195	16.70	-196.12	-113.67
3198	17.60	-189.17	273.35
3204	17.68	-184.69	356.15
3205	17.69	-183.81	198.32
3206	15.91	-182.88	52.50
3208	17.46	-174.34	-369.38
3209	16.20	-170.55	402.93
3210	17.22	-164.87	-41.16
3213	17.80	-164.73	-477.46
3214	17.66	-161.72	73.44
3215	17.20	-161.27	228.25
3216	16.83	-156.53	420.29
3217	16.39	-157.30	146.03
3218	16.39	-157.30	146.03
3221	13.34	-153.50	504.93
3223	16.52	-152.00	543.35
3224	16.84	-149.24	-526.73
3225	15.29	-146.01	165.20
3226	17.03	-143.78	483.29
3227	14.50	-141.55	265.40
3229	16.79	-140.47	-431.90
3230	16.71	-138.92	-377.28
3231	13.31	-136.62	560.12
3234	16.18	-129.54	3.15
3235	17.84	-130.88	-580.82
3236	15.70	-131.09	-672.70
3239	17.99	-124.68	286.96
3241	17.65	-121.66	-263.89
3243	17.23	-120.95	64.93
3245	17.61	-116.14	-330.51
3246	16.76	-113.15	-250.70
3250	17.44	-102.88	-50.31
3251	17.18	-103.17	-206.91
3253	17.31	-102.33	-523.23
3255	17.60	-98.41	82.89
3257	16.15	-95.92	-104.32
3260	17.03	-93.60	-407.38
3262	17.58	-89.31	503.58
3264	15.96	-85.47	278.49
3266	16.91	-85.57	207.67
3268	14.85	-84.44	27.66
3270	16.20	-81.47	129.06
3272	10.72	-78.13	511.36
3273	14.19	-77.23	150.66
3282	16.35	-67.47	91.84
3284	16.13	-65.86	270.06
3285	16.42	-64.57	171.04
3288	16.67	-60.05	452.51
3289	17.27	-60.36	172.24
3291	17.84	-57.46	261.05
3295	17.51	-49.32	-46.18
3297	12.02	-46.26	240.03
3298	17.71	-45.22	-210.59
3304	17.81	-37.02	-626.58
3305	17.92	-36.67	-89.99
3311	17.99	-29.47	181.81
3312	17.79	-28.46	-604.97
3313	17.49	-26.73	48.61
3314	17.48	-26.52	494.50
3315	17.34	-25.50	-364.83
3318	16.23	-19.63	213.01
3319	12.33	-18.52	-667.43
3321	17.68	-16.89	10.20
3326	17.03	-7.00	274.82
3338	16.93	5.64	-133.80
3339	17.01	7.13	-725.70
3340	15.49	7.03	154.80
3341	17.51	8.43	144.00
3343	13.51	9.97	-681.25
3344	16.72	9.92	-362.44
3351	16.87	22.77	-585.75
3353	14.61	23.84	234.62
3355	15.20	28.50	-671.63
3360	15.68	32.49	-183.00
3363	17.53	33.77	39.01
3365	17.22	36.62	-19.79
3368	11.56	39.09	477.70
3369	11.64	41.81	566.56
3371	16.89	43.45	254.43
3372	17.64	45.29	-282.00
3373	14.86	46.36	126.02
3374	17.43	49.32	-46.18
3379	13.93	54.74	174.03
3380	16.87	56.77	-450.04
3381	17.33	56.16	166.83
3382	16.82	57.32	395.48
3384	16.09	58.95	175.24
3386	15.67	59.96	543.16
3390	17.10	67.61	-16.76
3391	17.43	69.35	-292.78
3392	16.77	70.40	3.64
3393	10.86	69.84	450.12
3396	17.58	72.02	-165.56
3399	16.51	76.00	28.25
3400	17.25	77.44	5.45
3403	16.72	79.77	341.49
3405	14.97	84.22	174.67
3411	15.82	92.70	140.48
3413	17.44	95.30	-571.27
3416	17.46	96.69	271.30
3417	16.11	96.94	129.69
3422	17.24	102.55	-646.93
3426	16.88	106.77	129.10
3430	16.46	112.54	51.11
3434	16.80	119.69	-4.07
3439	17.89	126.37	-474.55
3441	17.14	131.99	-448.12
3443	17.21	131.86	-389.90
3444	15.59	129.98	414.82
3447	17.16	134.03	-112.64
3458	17.15	150.35	116.61
3459	16.68	150.32	129.21
3460	17.13	149.44	457.49
3462	14.87	156.81	-696.67
3469	17.66	163.13	71.04
3470	15.72	167.91	352.50
3471	17.26	173.05	47.07
3475	16.37	183.23	-54.30
3476	17.20	184.66	-61.50
3478	14.26	185.74	38.11
3479	17.13	186.96	93.32
3480	16.81	191.88	-529.62
3484	16.32	197.91	571.12
3485	17.34	205.93	-484.54
3487	17.21	210.77	-258.23
3488	15.96	211.68	-501.93
3489	15.86	209.84	363.45
3490	17.03	211.73	-137.61
3491	17.81	213.22	-533.15
3492	17.89	211.89	560.97
3493	13.88	215.22	56.22
3494	15.97	215.37	382.08
3497	14.52	224.88	-249.78
3501	17.17	225.19	374.92
3502	17.83	226.20	470.97
3504	17.44	233.85	-24.11
3505	16.00	236.85	-405.18
3506	16.99	236.75	-43.90
3507	16.23	245.39	-85.87
3510	17.95	248.16	556.93
3512	17.23	255.91	-543.19
3513	15.11	257.14	-187.23
3514	17.84	257.21	-204.64
3517	16.19	257.12	124.80
3519	16.07	260.33	-268.84
3520	13.33	259.54	-97.81
3521	17.57	261.37	-186.01
3522	17.22	258.60	411.09
3523	17.63	262.77	-183.01
3525	16.87	270.04	-523.31
3527	15.17	268.20	448.35
3528	17.16	270.18	38.45
3529	11.85	270.85	189.68
3530	17.34	275.41	-167.35
3532	10.45	274.40	608.11
3533	15.18	280.58	209.53
3534	16.47	285.40	-469.81
3535	17.69	288.99	-615.71
3536	13.67	295.59	-516.59
3539	17.97	294.58	480.92
3541	16.68	300.40	-352.67
3542	15.85	297.47	199.42
3543	17.70	302.76	0.22
3544	17.40	308.62	-560.96
3545	15.19	305.97	441.36
3546	17.02	307.49	418.55
3548	15.42	315.34	-747.14
3549	15.72	310.89	56.67
3550	16.07	313.03	-330.40
3552	15.24	317.47	137.72
3553	14.84	321.81	-378.97
3554	14.09	321.20	-24.89
3555	16.20	327.44	-617.32
3557	16.92	333.75	-240.25
3558	16.70	352.39	-280.36
3559	17.70	351.36	-114.72
3560	14.66	354.31	-359.58
3561	14.18	354.67	-418.41
3562	13.93	356.54	-42.08
3563	12.33	360.54	-448.39
3564	17.02	362.92	-376.33
3565	13.35	367.82	-695.78
3567	17.04	372.77	-150.59
3568	17.13	382.70	-366.01
3569	17.22	385.34	-337.18
3571	14.35	387.85	-497.46
3572	14.24	388.14	76.36
3573	17.60	397.91	-513.60
3574	17.23	397.17	-206.85
3575	16.63	393.49	513.99
3577	17.01	407.33	-439.69
3578	17.19	400.11	563.28
3579	17.46	407.92	-521.95
3580	16.62	407.30	342.38
3581	17.78	412.26	-144.32
3582	15.80	418.30	-579.53
3583	16.70	415.46	-193.51
3586	15.19	418.23	191.81
3589	9.46	432.32	366.59
3590	14.96	447.70	-698.87
3591	13.82	447.81	-351.74
3592	16.08	450.41	-145.84
3593	17.43	454.01	-241.84
3594	14.27	452.17	161.47
3595	15.08	452.18	159.67
3596	10.43	448.60	603.33
3597	16.41	454.29	-101.39
3598	12.93	458.57	-455.53
3599	16.77	462.02	-705.98
3600	9.82	457.31	220.33
3601	17.03	461.11	-71.93
3602	16.92	458.23	278.56
3603	17.91	469.79	-610.39
3604	16.52	462.33	459.91
3605	17.66	467.59	-3.46
3606	11.45	475.21	-576.71
3607	17.42	472.60	70.41
3608	17.48	481.17	-108.97
3609	16.82	478.65	186.30
3610	16.43	481.59	333.40
3611	16.19	485.59	32.71
3613	16.69	491.84	-199.52
3614	11.93	486.77	382.07
3615	17.50	494.82	-378.39
3616	17.03	506.99	-470.15
3617	17.53	508.39	-309.83
3618	17.45	508.46	-160.96
3619	17.76	522.31	-746.37
3620	14.92	518.36	-161.47
3621	17.24	514.69	236.45
3622	17.26	514.12	298.88
3623	13.85	516.76	316.92
3624	16.33	520.20	96.64
3625	16.80	529.29	-423.73
3626	17.06	529.82	121.34
3628	17.64	548.70	-669.22
3629	15.95	542.99	500.92
3630	17.77	551.47	-368.28
3631	13.27	553.04	-385.08
3632	9.25	554.98	-437.31
3633	13.46	556.83	-626.49
3634	16.37	555.25	-34.47
3635	16.46	567.36	-681.67
3636	15.08	563.43	134.88
3637	17.48	568.73	-251.64
3639	13.19	566.60	376.26
3640	17.45	577.48	-554.81
3641	17.19	574.60	550.51
3642	11.91	581.81	-10.79
3643	17.45	592.38	452.81
3644	17.15	608.29	-641.03
3645	16.26	609.28	184.60
3646	15.92	610.51	329.31
3647	16.68	612.83	245.88
3648	16.82	623.88	-118.40
3649	15.48	640.07	-300.14
3650	11.61	645.32	-16.70
3651	16.29	658.93	-581.63
3652	17.27	658.64	49.49
3653	16.19	663.06	32.73
3654	17.47	668.12	-156.93
3655	10.47	681.71	-463.03
3656	17.47	681.13	-180.19
3657	17.73	675.56	280.85
3658	17.42	677.64	225.03
3659	17.16	687.67	-136.88
3660	11.43	772.92	-583.91
3661	9.96	-695.86	-342.75
3662	13.58	-684.41	587.29
3663	12.51	-641.73	173.56
3664	17.94	-590.60	489.42
3665	14.04	-580.83	-52.82
3666	16.77	-577.47	-275.57
3667	18.14	-574.44	-256.39
3668	18.12	-560.23	453.65
3669	18.24	-563.75	-37.99
3670	18.30	-569.17	-577.72
3671	17.11	-550.66	-577.28
3672	18.27	-534.92	-119.90
3673	18.10	-525.97	231.76
3674	13.40	-508.29	-141.15
3675	17.47	-471.64	-319.74
3676	12.68	-448.96	-141.05
3677	17.24	-439.66	-398.63
3678	18.41	-428.46	504.06
3679	13.12	-435.10	-543.98
3680	18.04	-421.38	-419.78
3681	17.23	-415.94	122.17
3682	18.09	-405.68	372.39
3683	18.36	-390.60	-690.24
3684	17.67	-371.69	434.57
3685	13.07	-374.97	-270.61
3686	16.74	-355.83	-603.35
3687	18.30	-344.81	31.66
3688	18.25	-327.90	-451.58
3689	16.77	-325.05	-203.09
3691	18.14	-315.17	45.89
3692	17.64	-312.22	321.34
3693	18.15	-300.70	-143.21
3694	18.46	-300.31	-603.04
3695	18.50	-279.06	232.33
3696	17.34	-283.38	-633.75
3697	18.02	-281.06	-453.02
3698	18.21	-272.85	66.07
3699	18.22	-272.16	209.49
3700	18.26	-210.58	168.41
3701	18.01	-182.23	-181.52
3702	18.01	-179.43	-189.33
3703	18.39	-173.21	-4.53
3704	18.36	-168.25	240.87
3705	18.06	-70.32	63.05
3706	16.96	-69.11	-94.76
3707	12.61	-67.05	443.51
3708	18.15	-62.42	-424.83
3709	16.87	-51.18	-547.31
3710	18.23	-46.47	-8.38
3711	18.03	-29.70	-245.40
3713	18.35	-23.97	-91.19
3714	18.28	-18.55	-741.32
3715	17.54	-16.84	188.41
3717	18.27	-1.41	-256.21
3718	18.02	0.00	-207.01
3719	18.29	15.48	35.40
3720	18.27	16.82	259.82
3721	18.25	22.34	466.28
3723	18.37	78.01	-411.00
3724	18.30	85.05	-379.78
3725	18.47	94.92	-344.36
3726	16.86	101.97	-324.54
3727	18.47	102.42	199.90
3728	18.17	107.63	-323.93
3729	18.23	115.46	0.12
3730	18.17	114.66	386.57
3732	12.36	125.30	628.55
3733	18.42	129.06	208.96
3734	14.29	164.92	415.51
3735	18.09	193.46	-574.04
3736	18.38	194.47	-455.76
3739	18.28	254.73	-280.86
3742	18.30	350.92	-498.88
3743	18.28	347.30	84.49
3744	18.24	369.88	-574.44
3745	18.13	375.60	-364.25
3746	18.17	372.74	277.31
3747	18.46	375.54	-142.77
3748	18.18	378.44	-153.56
3749	18.33	389.03	353.05
3750	18.40	390.03	410.09
3751	18.03	416.52	42.95
3752	18.43	433.47	217.74
3753	17.90	448.27	-54.63
3754	17.37	462.22	-729.41
3755	18.25	481.41	-137.18
3756	17.35	478.24	559.74
3757	18.29	532.40	-452.52
3759	18.15	617.10	-272.77
3760	12.13	619.73	508.38
3761	18.19	662.14	-491.48
3762	17.57	655.17	225.36
3763	18.50	664.07	-293.27
3764	15.45	665.72	-72.90
3765	14.94	689.08	322.45
3801	9.96	-863.68	275.12
3803	9.86	-755.39	-658.65
3804	6.47	-713.10	-359.36
3805	10.91	-665.08	-621.22
3807	11.65	-650.83	-745.78
3808	11.58	-662.54	196.03
3809	12.23	-626.92	-10.91
3810	12.08	-503.95	-447.96
3811	12.80	-460.06	396.24
3813	8.42	-404.08	206.71
3815	10.82	-295.31	-735.82
3816	8.96	-242.15	-986.11
3817	9.77	-163.55	-1059.13
3818	12.26	-201.68	684.65
3819	11.61	-111.36	-785.68
3820	11.51	-124.87	823.19
3822	11.69	-64.39	-909.56
3823	12.55	-115.00	896.50
3826	12.09	132.56	-690.12
3827	13.24	90.21	809.30
3828	12.37	163.50	-1041.68
3829	10.04	113.77	821.36
3830	8.77	245.20	-1027.60
3831	11.92	212.65	724.94
3832	12.52	244.57	422.43
3833	12.61	307.79	-933.51
3835	12.84	322.58	-1018.24
3837	12.81	403.39	-684.75
3838	12.81	431.55	-1014.61
3839	10.95	390.41	554.80
3845	8.27	525.69	-647.79
3846	7.87	555.16	-893.38
3847	13.07	566.59	376.86
3848	11.91	581.93	914.22
3849	12.14	588.27	709.29
3850	12.10	625.89	704.33
3853	12.68	687.93	865.06
3854	13.00	697.15	683.62
3855	11.45	748.21	-225.60
3856	11.93	766.33	-100.46
3857	12.66	761.15	790.35
3858	11.22	849.80	-578.69
3859	9.96	-1314.13	-603.63
3860	10.23	-1230.98	-591.50
3861	9.97	-1013.39	767.13
3862	11.32	-1004.39	-775.44
3863	10.11	-567.03	-1225.50
3864	11.97	-547.06	-1397.42
3865	11.20	-1075.46	219.42
3866	9.67	-1013.39	767.13
3867	9.88	-851.44	887.45
3868	10.68	-789.19	676.54
3869	10.62	-729.79	743.59
3870	11.82	89.38	1320.68
3871	11.81	-129.33	-1153.08
3872	10.66	-33.23	-1474.90
3873	12.81	1.44	-1258.56
3874	8.02	983.25	-793.82
3875	10.84	1094.45	-325.30
3876	12.26	1161.98	-709.56
3877	8.60	1180.02	-407.84
3878	8.61	1177.81	103.71
3879	11.14	1310.50	-201.22
3880	11.75	172.14	1234.18
3881	10.49	395.97	1138.59
3882	13.41	887.99	773.78
3883	12.55	966.45	422.89
3884	12.63	1004.14	507.74
3885	12.58	1096.78	635.90
3886	12.14	1188.74	647.58
3887	13.27	1188.74	647.58
4001	20.00	-856.56	-179.66
4002	20.00	-856.38	-731.90
4003	20.00	-850.32	-613.54
4004	20.00	-838.15	-562.02
4005	20.00	-807.04	-578.66
4006	20.00	-807.39	-905.17
4007	20.00	-782.21	-226.95
4008	20.00	-783.07	-390.91
4009	20.00	-785.31	-862.73
4010	20.00	-769.22	-208.51
4011	20.00	-765.50	-668.14
4012	20.00	-755.80	51.92
4013	20.00	-755.31	-15.94
4014	20.00	-745.39	-226.24
4015	20.00	-710.82	-66.95
4016	20.00	-713.90	-536.55
4017	20.00	-711.11	-540.19
4018	20.00	-694.23	-441.26
4019	20.00	-680.39	-1.88
4020	20.00	-681.69	-698.56
4021	20.00	-673.53	-136.45
4022	20.00	-659.66	-158.22
4023	20.00	-658.91	-335.96
4024	20.00	-636.08	-450.31
4025	20.00	-616.88	3.99
4026	20.00	-617.85	-471.52
4027	10.16	-831.26	-675.72
4029	20.00	-597.29	-409.27
4033	20.00	-590.56	-444.17
4034	20.00	-583.56	-179.46
4037	20.00	-574.44	-256.39
4038	20.00	-563.75	-37.99
4039	20.00	-566.46	-591.56
4041	20.00	-560.83	-454.06
4042	20.00	-555.18	-169.53
4043	20.00	-550.39	30.91
4044	20.00	-553.42	-568.85
4046	20.00	-536.75	-16.04
4048	20.00	-534.92	-119.90
4050	20.00	-525.77	-198.62
4052	20.00	-514.72	-382.42
4054	20.00	-490.61	-546.56
4055	20.00	-471.64	-320.34
4057	20.00	-466.06	-329.99
4060	20.00	-458.78	-306.63
4062	20.00	-448.04	-740.93
4064	20.00	-436.02	70.11
4065	20.00	-440.66	-710.34
4066	20.00	-436.42	-901.51
4067	20.00	-419.77	-15.23
4068	20.00	-421.38	-419.78
4070	20.00	-408.85	-257.18
4071	20.00	-407.62	-283.60
4073	20.00	-409.72	-772.44
4074	20.00	-407.48	-858.41
4075	20.00	-401.93	-81.98
4078	20.00	-378.50	-164.36
4080	20.00	-378.33	-561.77
4084	20.00	-367.13	-370.91
4086	20.00	-362.83	-144.06
4087	20.00	-364.77	-665.76
4089	20.00	-355.83	-603.35
4090	20.00	-349.25	-229.96
4091	20.00	-344.81	31.66
4092	20.00	-342.14	466.79
4094	20.00	-347.30	-605.80
4095	20.00	-342.26	-11.56
4096	20.00	-338.93	305.29
4098	20.00	-334.04	881.86
4099	20.00	-341.36	-329.64
4100	20.00	-340.60	-203.60
4102	20.00	-332.40	-11.62
4106	20.00	-330.14	-106.45
4108	20.00	-327.90	-451.58
4109	20.00	-330.40	-883.50
4110	20.00	-328.26	-760.29
4111	20.00	-325.05	-203.69
4113	20.00	-322.32	-220.51
4118	20.00	-314.92	-413.83
4123	20.00	-308.89	-610.21
4125	20.00	-302.09	382.50
4126	20.00	-300.70	-143.21
4127	20.00	-300.31	-603.04
4131	20.00	-274.73	820.79
4135	20.00	-274.05	-471.06
4136	20.00	-273.37	-330.60
4138	20.00	-272.36	-414.64
4139	20.00	-265.06	814.12
4140	20.00	-268.18	-134.38
4146	20.00	-257.59	326.45
4151	20.00	-251.78	-254.47
4154	20.00	-231.87	451.78
4157	20.00	-227.41	-173.56
4158	20.00	-225.59	-73.35
4159	20.00	-222.22	768.25
4164	20.00	-221.32	-424.45
4165	20.00	-218.65	-467.08
4167	20.00	-213.10	244.63
4170	20.00	-212.13	-244.43
4172	20.00	-207.36	654.04
4174	20.00	-208.72	-468.32
4175	20.00	-208.91	-909.85
4177	20.00	-205.25	-295.46
4178	20.00	-195.70	802.99
4181	20.00	-190.13	-9.88
4183	20.00	-184.51	829.39
4185	20.00	-179.89	970.04
4186	20.00	-182.23	-181.52
4187	20.00	-179.43	-189.33
4189	20.00	-178.57	-366.37
4190	20.00	-174.95	-110.73
4191	20.00	-173.21	-3.93
4192	20.00	-170.70	-105.34
4193	20.00	-165.97	62.05
4194	20.00	-165.19	-150.97
4195	20.00	-164.67	26.64
4196	20.00	-163.22	-449.85
4197	20.00	-164.22	-795.18
4200	20.00	-155.00	-41.19
4201	20.00	-145.71	-816.86
4205	20.00	-130.08	968.08
4208	20.00	-126.04	918.77
4209	20.00	-125.76	427.41
4210	20.00	-124.31	452.62
4215	20.00	-119.91	-106.67
4216	20.00	-115.00	896.50
4217	20.00	-118.74	-898.06
4218	20.00	-117.18	-150.48
4220	20.00	-117.00	-750.82
4221	20.00	-116.98	-740.61
4222	20.00	-115.23	-579.04
4223	20.00	-114.73	-334.72
4225	20.00	-108.58	636.92
4226	20.00	-108.91	471.19
4229	20.00	-103.24	-245.32
4230	20.00	-102.66	-711.20
4231	20.00	-101.16	-670.35
4233	20.00	-98.64	-46.11
4235	20.00	-97.25	-53.32
4236	20.00	-96.61	312.71
4240	20.00	-93.98	-638.53
4242	20.00	-93.65	-437.39
4244	20.00	-85.86	19.27
4246	20.00	-86.21	-210.54
4248	20.00	-83.19	-83.94
4250	20.00	-75.25	579.81
4251	20.00	-75.67	-789.34
4253	20.00	-69.11	-95.36
4254	20.00	-68.95	37.24
4256	20.00	-67.87	-235.77
4258	20.00	-63.61	-219.57
4259	20.00	-62.51	756.38
4260	20.00	-62.42	-424.83
4261	20.00	-60.23	291.65
4263	20.00	-59.72	-559.31
4264	20.00	-54.60	314.45
4267	20.00	-47.88	-7.78
4268	20.00	-46.15	381.06
4269	20.00	-46.77	-375.02
4271	20.00	-45.63	-723.28
4272	20.00	-42.29	-68.38
4276	20.00	-38.33	-471.67
4277	20.00	-33.98	-314.42
4279	20.00	-32.52	-243.00
4280	20.00	-32.62	-411.05
4282	20.00	-31.24	-494.49
4283	20.00	-31.07	-182.40
4284	20.00	-29.70	-245.40
4289	20.00	-23.99	-118.80
4291	20.00	-14.12	-190.20
4293	20.00	-2.82	-112.80
4294	20.00	-1.41	-256.21
4295	20.00	0.00	-207.01
4296	20.00	1.40	459.08
4297	20.00	1.40	433.26
4299	20.00	4.22	82.80
4300	20.00	9.85	28.20
4302	20.00	9.88	-120.60
4303	20.00	12.67	24.60
4304	20.00	12.70	-81.00
4305	20.00	15.48	35.40
4308	20.00	16.82	260.42
4309	20.00	16.82	256.22
4310	20.00	19.89	-496.89
4312	20.00	22.73	-487.89
4318	20.00	34.89	505.31
4322	20.00	39.82	-560.52
4326	20.00	44.11	-586.94
4328	20.00	53.67	-175.78
4331	20.00	68.56	349.88
4333	20.00	68.95	36.64
4335	20.00	72.55	-578.51
4338	20.00	73.76	-418.21
4340	20.00	74.73	-78.55
4341	20.00	75.46	-627.15
4342	20.00	74.52	81.05
4343	20.00	78.01	-411.00
4344	20.00	77.81	-269.96
4346	20.00	85.06	-380.38
4347	20.00	85.47	-655.36
4348	20.00	89.21	-318.56
4349	20.00	88.88	771.44
4350	20.00	90.19	820.11
4351	20.00	93.43	-299.35
4352	20.00	94.81	-282.54
4353	20.00	94.92	-344.36
4356	20.00	96.53	363.12
4358	20.00	99.00	-250.73
4361	20.00	101.97	-324.54
4362	20.00	107.63	-323.93
4364	20.00	109.13	-369.54
4367	20.00	111.50	571.47
4368	20.00	115.46	0.12
4369	20.00	114.66	386.57
4370	20.00	116.95	-40.08
4372	20.00	119.94	-786.87
4374	20.00	124.49	-910.07
4376	20.00	123.82	41.54
4378	20.00	125.66	470.63
4381	20.00	130.76	80.55
4384	20.00	131.82	818.40
4385	20.00	138.63	-845.72
4386	20.00	136.66	543.90
4387	20.00	136.15	750.51
4389	20.00	142.41	-638.44
4393	20.00	147.76	32.59
4396	20.00	151.14	-177.41
4397	20.00	155.26	-135.99
4399	20.00	159.41	-606.57
4402	20.00	162.39	802.27
4403	20.00	164.89	426.92
4404	20.00	166.73	-194.76
4405	20.00	166.72	-192.97
4406	20.00	167.97	792.07
4407	20.00	175.13	724.20
4412	20.00	182.42	-241.53
4413	20.00	185.95	-888.88
4416	20.00	192.53	-720.00
4417	20.00	192.67	-341.72
4419	20.00	192.82	24.93
4420	20.00	197.25	-438.34
4421	20.00	197.89	-215.67
4422	20.00	198.03	538.70
4423	20.00	206.44	-235.44
4424	20.00	207.65	-177.83
4426	20.00	215.48	-380.05
4428	20.00	215.43	1.01
4429	20.00	220.28	-519.91
4430	20.00	220.47	-205.39
4436	20.00	242.06	31.12
4439	20.00	258.03	-384.09
4445	20.00	266.84	-147.58
4446	20.00	266.11	7.23
4449	20.00	275.74	-820.04
4451	20.00	275.84	32.48
4452	20.00	275.83	34.28
4453	20.00	275.76	332.54
4455	20.00	286.14	-56.28
4458	20.00	292.88	3.17
4459	20.00	296.80	-207.45
4466	20.00	320.76	-696.04
4467	20.00	324.42	-837.24
4469	20.00	322.26	-210.31
4470	20.00	328.72	-838.42
4471	20.00	329.60	-255.88
4472	20.00	330.50	-167.66
4474	20.00	341.47	-346.45
4475	20.00	341.00	652.35
4478	20.00	354.34	305.39
4480	20.00	361.98	-450.78
4482	20.00	358.60	943.36
4483	20.00	369.88	-574.44
4484	20.00	371.51	-388.89
4486	20.00	375.60	-364.25
4488	20.00	378.44	-153.56
4491	20.00	388.47	-380.38
4492	20.00	389.03	353.65
4493	20.00	387.31	600.42
4494	20.00	390.03	410.09
4496	20.00	433.55	388.82
4498	20.00	507.28	587.65
4499	20.00	524.65	371.63
4500	20.00	553.41	716.11
4501	20.00	596.97	416.23
4502	20.00	633.69	631.11
4503	20.00	662.77	530.53
4504	20.00	692.41	951.15
4505	20.00	718.19	993.64
4506	20.00	726.53	886.06
4507	20.00	732.91	612.60
4508	20.00	737.94	337.52
4509	20.00	748.79	572.56
4510	20.00	768.18	583.66
4511	20.00	771.70	831.40
4512	20.00	816.42	720.26
4513	20.00	825.59	477.58
4514	20.00	824.32	750.45
4515	20.00	931.71	821.50
5012	13.67	-209.14	-200.63
5014	14.16	-206.30	-195.24
5063	13.61	-167.98	-140.16
5066	14.19	-165.17	-143.76
5342	14.43	-4.24	-244.81
5401	12.97	19.69	72.61
5623	14.33	137.35	-319.06
5635	13.67	148.34	-190.01
5657	15.26	159.53	-149.18
5698	13.50	183.89	-258.92
5733	13.99	213.82	56.21
5773	13.75	256.32	-9.02
5774	13.67	256.60	-69.02
